Time_s,ECG_mV
0.0,-0.01690153893404801
0.004,0.002799835212995664
0.008,0.023667825931524146
0.012,0.004886807152645679
0.016,0.019216781347962356
0.02,0.0010308400317735463
0.024,-0.016782788159191667
0.028,0.0334750841986668
0.032,-0.019793268999913013
0.036000000000000004,-0.03484201118503384
0.04,-0.006791685098622265
0.044,-0.014402211926494235
0.048,0.0030279543652799476
0.052000000000000005,0.04083103393733609
0.056,0.04331964214420578
0.06,0.013486154585096909
0.064,0.049146781947573194
0.068,0.020972253464246686
0.07200000000000001,0.010165098315091796
0.076,-0.006558102834878473
0.08,0.014391202975195142
0.084,0.010600958028743314
0.088,0.053719810328373405
0.092,0.011135298530475506
0.096,-0.01984804103077627
0.1,-0.03561844264530033
0.10400000000000001,0.06406234462890158
0.108,0.04831061789896463
0.112,-0.03769156677221784
0.116,-0.012379146345332432
0.12,0.014317122862281461
0.124,0.006936867730582478
0.128,0.00040372081278238067
0.132,0.04549448121819145
0.136,-0.007651097456033602
0.14,0.035412461808803496
0.14400000000000002,-0.006301096132531945
0.148,0.009318850836174786
0.152,-0.012622019909183962
0.156,-0.012604908536732067
0.16,-0.005715866068549497
0.164,-0.051085453015243275
0.168,-0.004188771617429679
0.17200000000000001,0.02234435742662238
0.176,0.023928386368592257
0.18,0.007293852716704527
0.184,0.0003338034652586811
0.188,0.014900965348873665
0.192,0.04736325629562858
0.196,-0.0507931072473992
0.2,-0.015956888837508364
0.20400000000000001,0.0038192974861298544
0.20800000000000002,-0.01700274643737637
0.212,0.001312087029233537
0.216,-0.02738039191011017
0.22,-0.0066539151621719216
0.224,0.02459031907861707
0.228,-0.0020434905888051915
0.232,0.015114238109312885
0.23600000000000002,0.004883776756914985
0.24,0.03701049326907309
0.244,-0.035176135903009456
0.248,-0.018050265597798435
0.252,0.03733389179343229
0.256,0.021750143024730134
0.26,-0.007087715653946808
0.264,0.007797450726744964
0.268,0.005874677873547434
0.272,-0.03279653508480696
0.276,-0.020382361756494622
0.28,-0.019393279625618348
0.28400000000000003,0.034842473017927734
0.28800000000000003,0.03986660903861493
0.292,0.03584038750586091
0.296,0.02627277428370176
0.3,-0.002773826754053141
0.304,0.008865554053374573
0.308,0.014050849202815404
0.312,0.006302489231993495
0.316,0.05691095429154001
0.32,0.0645531176412726
0.324,0.03173630455366019
0.328,0.00480376024093652
0.332,-0.006791044016000591
0.336,0.06203723585126349
0.34,0.02920067850873864
0.34400000000000003,0.03557306601583947
0.34800000000000003,-0.010815705795764078
0.352,0.030361804164361714
0.356,0.041904768710546283
0.36,0.00823689222293338
0.364,-0.008088780368835901
0.368,0.004547773928749025
0.372,0.03616005483533709
0.376,0.049068911421842054
0.38,0.014622491364910922
0.384,0.005071856183972979
0.388,0.0455124658283889
0.392,-0.015504756245953063
0.396,0.010374008006884754
0.4,0.012085287062557695
0.404,0.033323690500634204
0.40800000000000003,-0.005634196402512524
0.41200000000000003,0.045923726874365134
0.41600000000000004,0.012730351972673006
0.42,0.019428956878158286
0.424,0.05938129351473098
0.428,0.012302629826987942
0.432,0.029335736120835048
0.436,0.04054264554965367
0.44,-0.014810147607927128
0.444,-0.0357744263803614
0.448,0.010454235547171106
0.452,0.04153552808450345
0.456,0.02716035223283962
0.46,0.06975868603710142
0.464,0.037646246902962824
0.468,0.03184621786271714
0.47200000000000003,0.02476908188787519
0.47600000000000003,0.06650519128031672
0.48,0.03493750065006013
0.484,0.06074934711951997
0.488,0.07553384582922364
0.492,0.13095201110822874
0.496,0.027098650678431473
0.5,0.11559497376947449
0.504,0.10496637491539232
0.508,0.09909277360314893
0.512,0.07981772633878043
0.516,0.07211569748779091
0.52,0.11635669008009267
0.524,0.13512485616425918
0.528,0.11178617848306852
0.532,0.10240844646864784
0.536,0.11636719865805907
0.54,0.0683431371244557
0.544,0.06836947425098093
0.548,0.04410210521506462
0.552,0.060767152379657664
0.556,0.0391622098957953
0.56,0.0801843923482864
0.5640000000000001,0.06296612473347789
0.5680000000000001,0.03093850969650941
0.5720000000000001,0.04342317920797611
0.5760000000000001,0.03263882996716953
0.58,0.020639147503408582
0.584,0.005409424447629461
0.588,0.017179245948452472
0.592,0.016595251104524575
0.596,0.020922719295255444
0.6,0.03856024530064195
0.604,0.01157785044153858
0.608,0.03299570065750944
0.612,0.030259166731087177
0.616,0.019636369929329475
0.62,0.03817421302894725
0.624,0.047881236549114345
0.628,0.012127233392162675
0.632,0.045539147143627536
0.636,0.05398407428112573
0.64,0.04701533573398256
0.644,-0.008569419336294244
0.648,0.016468163816102308
0.652,0.0031752749458483047
0.656,0.018617177791614786
0.66,0.02672318144964972
0.664,-0.03259981179775506
0.668,-0.03645288384558638
0.672,-0.01272607623713106
0.676,-0.028650703948755962
0.68,0.09486191695707197
0.684,0.2891754726472481
0.6880000000000001,0.46627762966201153
0.6920000000000001,0.7313083460317418
0.6960000000000001,0.9257730690047206
0.7000000000000001,0.9723897967884846
0.704,0.9598106086681512
0.708,0.6692549607178454
0.712,0.43321710445703226
0.716,0.18501600334570525
0.72,0.0329798873677924
0.724,-0.09742365285985964
0.728,-0.12457427192273136
0.732,-0.15983862635923898
0.736,-0.12864922080198013
0.74,-0.09626407778554084
0.744,-0.06949818560033202
0.748,-0.04672518473210126
0.752,0.03132559584506278
0.756,0.05330351456302322
0.76,0.0040503599041301595
0.764,0.006021007432028214
0.768,0.07227806992024777
0.772,0.018981593990743555
0.776,-0.016857810051138525
0.78,0.018875078034279198
0.784,0.06296582520885216
0.788,0.050689846915186944
0.792,0.032972214587523696
0.796,0.013465783550434023
0.8,0.0008468454150991553
0.804,0.059598599738121275
0.808,0.060336397629737054
0.812,0.06128622160036523
0.8160000000000001,0.025579467525973034
0.8200000000000001,0.043235049923100524
0.8240000000000001,0.014050148069790859
0.8280000000000001,0.021023116748854254
0.8320000000000001,0.055120255104118006
0.836,-0.0009312617404763912
0.84,0.05511619097614889
0.844,0.01709250254316217
0.848,0.05178831612023217
0.852,0.04435406364714421
0.856,0.10394535586086977
0.86,0.08134432927395442
0.864,0.03167542871658892
0.868,0.028306249877616263
0.872,0.07564998841685301
0.876,0.009459891033122655
0.88,0.053158369400825516
0.884,0.074696425667889
0.888,0.11961789276006728
0.892,0.14502826342722364
0.896,0.10820675496702459
0.9,0.12418621897385976
0.904,0.093117525576481
0.908,0.16044824391674828
0.912,0.15420009598990742
0.916,0.18345303661550943
0.92,0.21837817493246087
0.924,0.22549333154058246
0.928,0.19492658368085394
0.932,0.23752659699837392
0.936,0.26670518119296804
0.9400000000000001,0.25153109890609393
0.9440000000000001,0.27832958373572464
0.9480000000000001,0.22412485440597432
0.9520000000000001,0.24519563380902443
0.9560000000000001,0.31006063312671434
0.96,0.31076834153402155
0.964,0.2280183043677735
0.968,0.2614002222238616
0.972,0.28144794114064087
0.976,0.2610985581900575
0.98,0.2643318814790149
0.984,0.232512385500707
0.988,0.22288729326133844
0.992,0.20142128262182535
0.996,0.19890581224807485
1.0,0.1774525916762332
1.004,0.20908643037906324
1.008,0.18858129175871055
1.012,0.17306499973363765
1.016,0.14526298278994446
1.02,0.1247691516274821
1.024,0.12968010067994828
1.028,0.08970615470363597
1.032,0.07889577600040179
1.036,0.11018972921438785
1.04,0.09871812705012659
1.044,0.06176058453961282
1.048,0.06957855758287826
1.052,0.05429152911878732
1.056,0.07868158718533488
1.06,0.0025240427040146562
1.064,0.0204953304802195
1.068,0.054108112674899636
1.072,0.0413372130422146
1.076,0.0432390832632768
1.08,0.011823772717021182
1.084,0.08474301936705027
1.088,0.05956540671676165
1.092,0.032919081527435536
1.096,0.047216535828679795
1.1,0.030721222061657446
1.104,0.025479707106431895
1.108,0.029200515255046702
1.112,0.03045887167970905
1.116,0.005859945724796721
1.12,-0.008576995950337382
1.124,0.05972685280566616
1.1280000000000001,-0.0009417464876264048
1.1320000000000001,0.0442925695233443
1.1360000000000001,0.057399287147253314
1.1400000000000001,0.0034931487003199355
1.1440000000000001,0.025759425826873815
1.1480000000000001,0.008725862707439691
1.1520000000000001,0.03993996994506288
1.156,0.07584122564206507
1.16,0.0325648497744996
1.164,0.02722277469231461
1.168,0.07048057326661372
1.172,0.02028763593511854
1.176,0.009476425869645023
1.18,0.04118871497228268
1.184,0.017514474466867103
1.188,0.035996903487846746
1.192,0.030167286949971544
1.196,0.025434564204793276
1.2,0.007740202180959412
1.204,0.014189440347380473
1.208,0.032375803069151894
1.212,0.026034357462752077
1.216,0.01579098219663549
1.22,0.026846811743801144
1.224,0.021483567186416426
1.228,-0.010524426678939342
1.232,0.001269216373363559
1.236,0.03945328468708276
1.24,0.001183077877963179
1.244,-0.000528444645740863
1.248,0.027559999262197613
1.252,0.03245526705136283
1.256,0.072752874869909
1.26,0.0736089664734976
1.264,0.04327630763679882
1.268,0.048352127040557656
1.272,0.021409122658885397
1.276,0.0033051748286685757
1.28,0.031132733742890134
1.284,0.05205571478362096
1.288,0.054472208006911715
1.292,0.0574438033512196
1.296,0.05421360314764381
1.3,0.02339508088150455
1.304,0.028452975110513944
1.308,0.06673301506930082
1.312,0.01569392636943414
1.316,0.05461272277040028
1.32,0.05958517726921738
1.324,0.08380593379434054
1.328,0.05551488646009646
1.332,0.12726067055981577
1.336,0.11945277365883844
1.34,0.14947969293603455
1.344,0.12772334362798568
1.348,0.11092842216956786
1.352,0.10795927085442285
1.356,0.13136537365726164
1.36,0.09634645858478595
1.364,0.11174931102217202
1.368,0.07829852288912616
1.372,0.10099639777314717
1.3760000000000001,0.05505779479048823
1.3800000000000001,0.07766155318271514
1.3840000000000001,0.08604847894513816
1.3880000000000001,0.061307277311416726
1.3920000000000001,0.017989307992477
1.3960000000000001,0.04912273355319289
1.4000000000000001,-0.04110928723608983
1.4040000000000001,0.038089125967330405
1.408,0.016348928358837663
1.412,0.04286537967636729
1.416,0.06189770644062918
1.42,0.030127013536073687
1.424,-0.00011898737949325722
1.428,0.062433605367785805
1.432,0.04794227509410706
1.436,0.06868830392373038
1.44,-0.009888230508439948
1.444,0.01593705633838201
1.448,0.0940709677253182
1.452,0.03771839130828149
1.456,0.0220344479711655
1.46,0.027501588510198037
1.464,0.020591065425703572
1.468,0.01923883218928201
1.472,-0.006600100220429665
1.476,-0.05072303236083271
1.48,0.021801344143796066
1.484,0.007756122500776973
1.488,0.039159482527133686
1.492,-0.015594555186530365
1.496,-0.032707145483853846
1.5,-0.01671190272770634
1.504,-0.029302490997817593
1.508,-0.007810524297292155
1.512,0.02806516475737804
1.516,0.2145217999115846
1.52,0.4002292426613291
1.524,0.6415553324861875
1.528,0.8849934982155957
1.532,0.9266516010636042
1.536,0.9792592417953483
1.54,0.8438182273199065
1.544,0.5709221060222899
1.548,0.29332322339948486
1.552,0.06632215072379744
1.556,-0.06347514174527487
1.56,-0.15382054815456533
1.564,-0.1757484309155583
1.568,-0.12449766415392126
1.572,-0.08046903574063839
1.576,-0.051953817780263485
1.58,0.00420669178718603
1.584,-0.01944726474364921
1.588,0.04048073994502184
1.592,0.06734548009259414
1.596,0.008138478479071766
1.6,0.05017871169610989
1.604,0.023247079825311982
1.608,0.0003469645488850051
1.612,0.07619118021324661
1.616,0.017251507646685687
1.62,0.004727009347846728
1.624,0.060124789680869054
1.6280000000000001,0.004426605113521102
1.6320000000000001,0.014863368346093208
1.6360000000000001,0.10163071612957647
1.6400000000000001,0.003443161045620362
1.6440000000000001,-0.03228792253945007
1.6480000000000001,0.015036724143285558
1.6520000000000001,-0.00399054100383469
1.6560000000000001,0.055025956280240707
1.6600000000000001,0.014590464229319717
1.6640000000000001,0.021460647539347663
1.668,0.054441703372723416
1.672,-0.024525979416535837
1.676,0.02883254095051628
1.68,-0.016739602955281735
1.684,0.029411812643366085
1.688,0.05699120992337732
1.692,0.027733178008327808
1.696,0.0663690914379701
1.7,0.02605557140671392
1.704,0.03990893418514504
1.708,0.08600892717737711
1.712,0.07002267470326837
1.716,0.09168792137796503
1.72,0.08305241782034185
1.724,0.10110169925373473
1.728,0.15136794841054427
1.732,0.08874964562749815
1.736,0.13279769105136977
1.74,0.1827883009743838
1.744,0.08170133456185
1.748,0.14297499431142607
1.752,0.1327316088431306
1.756,0.25692273751769545
1.76,0.1983500354473579
1.764,0.21349508458439787
1.768,0.20840290804745318
1.772,0.24577312050573794
1.776,0.26069400702910767
1.78,0.24307136779658928
1.784,0.24641565367839505
1.788,0.2437273605468614
1.792,0.25562191561636194
1.796,0.2760576256317412
1.8,0.30745456257576664
1.804,0.23458614815466342
1.808,0.24899906875968494
1.812,0.23619386205856444
1.816,0.24305830861951452
1.82,0.21287589075047073
1.824,0.20640465533612323
1.828,0.20846385391996314
1.832,0.20239435411987236
1.836,0.20760940487845037
1.84,0.13945987231957918
1.844,0.16593043135805766
1.848,0.1440853217896948
1.852,0.15677686313165515
1.856,0.07159471059077192
1.86,0.1073087838759599
1.864,0.09552379470767769
1.868,0.10496524513383755
1.872,0.05107367247537112
1.8760000000000001,0.017676592935673252
1.8800000000000001,0.022769816845152748
1.8840000000000001,0.03704776521025621
1.8880000000000001,0.04112873780090926
1.8920000000000001,0.034915403030878124
1.8960000000000001,0.09212511083582936
1.9000000000000001,0.030771578270594832
1.9040000000000001,0.010516132465029113
1.9080000000000001,-0.0007011225997908578
1.9120000000000001,0.002124335518504085
1.9160000000000001,0.017940384282523005
1.92,0.0331666336755741
1.924,0.04935763804316477
1.928,-0.030374878506443628
1.932,-0.0018921918692469987
1.936,0.02774417809887704
1.94,0.04220958998614143
1.944,-0.017542476671113694
1.948,0.049850120619825446
1.952,0.018932655072185722
1.956,0.0007825229812736499
1.96,-0.01876330751625284
1.964,-0.0024241596310800367
1.968,0.05052319483104617
1.972,0.03608894273492477
1.976,-0.005864261595053096
1.98,0.01915205146031193
1.984,0.016697482026886097
1.988,0.035205513739976914
1.992,-0.007736064785140707
1.996,0.022672101009591203
2.0,-0.009118049979852152
2.004,-0.011955998082135953
2.008,-0.020460846156769845
2.012,0.008625530696705063
2.016,0.022330626496999618
2.02,-0.015014472294586991
2.024,-0.021313105383691248
2.028,0.012501280908045424
2.032,0.008265404551224285
2.036,-0.029663616279630652
2.04,0.014711138657397243
2.044,0.009324728816881974
2.048,0.016180382888542007
2.052,0.00792396239923433
2.056,-0.006562232823418852
2.06,-0.010169146524429571
2.064,-0.02333553095343022
2.068,-0.003670737708077104
2.072,0.030069439322556582
2.076,0.06127832857589415
2.08,0.008534090914769702
2.084,-0.002931224669284674
2.088,0.07699655887292846
2.092,0.040040830992565356
2.096,0.00774429055337254
2.1,0.06507043866539443
2.104,0.025830974630712333
2.108,0.013028529820756453
2.112,-0.02876364451831453
2.116,0.027365767397581814
2.12,0.0023113918087810433
2.124,0.007542740720255074
2.128,0.027615575125073857
2.132,0.021912812325507444
2.136,0.04664813846564852
2.14,0.03654489735774124
2.144,0.013496749005888223
2.148,-0.0027003337332574436
2.152,0.07121280242486189
2.156,0.031981253660951364
2.16,0.022682835431263638
2.164,0.04977708451316372
2.168,0.0671439703040085
2.172,0.071632198922238
2.176,0.057574026506193574
2.18,0.09608746825839741
2.184,0.0709352876829757
2.188,0.12278009798169294
2.192,0.09796444424306408
2.196,0.06691497547060486
2.2,0.04969164898769215
2.204,0.08347434742409737
2.208,0.072844738825778
2.212,0.018928574560185915
2.216,0.05974677886620344
2.22,0.035875201578502595
2.224,0.07521521870177333
2.228,-0.009561389090539042
2.232,0.01863794189014982
2.236,0.0377342310364652
2.24,0.026516150935830443
2.244,-0.032885754717908874
2.248,-0.0025490349644732664
2.2520000000000002,0.014141939392661632
2.2560000000000002,0.043446105286277306
2.2600000000000002,-0.007635444391962495
2.2640000000000002,-0.0154341628694789
2.2680000000000002,0.0187880152931292
2.2720000000000002,-0.010525128458427898
2.2760000000000002,0.0037161667309517916
2.2800000000000002,-0.03705858068613067
2.2840000000000003,0.016253768412102125
2.2880000000000003,-0.006941473401265637
2.2920000000000003,-0.0468153425505484
2.2960000000000003,0.0016253100981927244
2.3000000000000003,0.006063169001979787
2.3040000000000003,-0.008158978372452656
2.308,0.04245782571736365
2.312,-0.03885252115365026
2.316,0.008923479180498229
2.32,0.0385172378969247
2.324,-0.012026075954603165
2.328,-0.0528475675049309
2.332,-0.05531174454808281
2.336,-0.07862865357772343
2.34,-0.06624933806300935
2.344,0.018579216329753553
2.348,0.05552012998754352
2.352,0.28215520007257433
2.356,0.5350675190572541
2.36,0.7960775966974932
2.364,0.9567314035114458
2.368,0.9659258668510852
2.372,0.8523432405910156
2.376,0.5706735720880184
2.38,0.36606545800929235
2.384,0.10129630184658656
2.388,-0.044454872549839444
2.392,-0.14146826056039394
2.396,-0.19399796535319927
2.4,-0.1370722398887091
2.404,-0.12155424006684351
2.408,-0.07051650082349159
2.412,-0.05532506511698466
2.416,-0.04720015711254891
2.42,0.038311560739724596
2.424,-0.04007926827211489
2.428,-0.022583563851710124
2.432,0.0017610667955346663
2.436,-0.005873634866423272
2.44,-0.04675935360378458
2.444,0.05174158989405379
2.448,-0.02244329142474414
2.452,0.00021787994209954338
2.456,-0.011180994029399316
2.46,0.027355608716637392
2.464,-0.042702436562944854
2.468,-0.03084231188729588
2.472,-0.023293976198579338
2.476,0.00643122717552207
2.48,0.015895706092737414
2.484,-0.0035253719188217316
2.488,-0.012155355247155032
2.492,-0.01651411618305138
2.496,-0.00620659813347518
2.5,0.006126901645327261
2.504,0.027352715259680808
2.508,0.017012220292370303
2.512,-0.04113774979416011
2.516,-0.018039914940799567
2.52,0.01662750945783907
2.524,0.01956642916827597
2.528,-0.0051437482267507155
2.532,0.059735595982047904
2.536,0.021771790148781597
2.54,0.048648751803218135
2.544,0.0951580269781965
2.548,0.026151956601519928
2.552,0.07329696425783046
2.556,0.08822684823040047
2.56,0.0860005618423351
2.564,0.057694687509266776
2.568,0.07787725366055948
2.572,0.11801774259720746
2.576,0.14000538371295562
2.58,0.15216867441686693
2.584,0.15863841520845945
2.588,0.1398341496123195
2.592,0.20531992784350128
2.596,0.17170959709502992
2.6,0.20892758775216436
2.604,0.2114657037958172
2.608,0.2058753631489297
2.612,0.18772740229910606
2.616,0.19874860156098173
2.62,0.22102096080791264
2.624,0.20767501067236507
2.628,0.25545762350858053
2.632,0.20910598248036247
2.636,0.2133100116220705
2.64,0.22649680569540653
2.644,0.17631706527841828
2.648,0.2084345563388078
2.652,0.19508684299973736
2.656,0.1972681361669782
2.66,0.16242785214809707
2.664,0.1804475454542818
2.668,0.1441701923422349
2.672,0.16654641638963533
2.676,0.15706312370770747
2.68,0.13103134379467096
2.684,0.08549671841868879
2.688,0.1322065595331431
2.692,0.06747615065980707
2.696,0.07183572819124988
2.7,0.041781430184880196
2.704,0.06317856292639018
2.708,0.037402053985844584
2.712,0.01553506109104985
2.716,-0.023470263036457245
2.72,-0.024324885220952962
2.724,0.03701097271338076
2.728,0.03468338738953661
2.732,0.006854973066696638
2.736,0.005386146275462315
2.74,-0.010971800193759568
2.744,-0.06049362641542182
2.748,-0.02500132974236697
2.7520000000000002,-0.04920844468737092
2.7560000000000002,-0.024906489593578638
2.7600000000000002,0.028692591087949203
2.7640000000000002,0.021524364049324233
2.7680000000000002,0.005195636085653436
2.7720000000000002,-0.040792392162319016
2.7760000000000002,-0.015929644929809285
2.7800000000000002,-0.04382276119598894
2.7840000000000003,-0.05858220083417333
2.7880000000000003,-0.03040141560801627
2.7920000000000003,-0.021315074410437194
2.7960000000000003,-0.06566665161091975
2.8000000000000003,-0.021527845146654498
2.8040000000000003,-0.022647764102817103
2.8080000000000003,-0.045929781929268707
2.8120000000000003,-0.0012564343563786148
2.816,0.014118425737705546
2.82,-0.04436170581023145
2.824,0.008567557161064512
2.828,-0.017435157661268755
2.832,-0.03957302371425041
2.836,-0.013780468103967717
2.84,-0.06579834700104187
2.844,0.0036946760762408652
2.848,-0.05984117210483168
2.852,-0.02900625222215759
2.856,-0.03542431207575674
2.86,-0.010450497364720347
2.864,-0.00477992385133982
2.868,-0.0043204750212631
2.872,-0.028998592975754196
2.876,0.005811961824800097
2.88,-0.07273463195169134
2.884,-0.05966374115908994
2.888,0.022266590432852132
2.892,-0.02312386134959461
2.896,-0.047604839684163416
2.9,-0.040166684327840346
2.904,-0.04473730199595881
2.908,0.005906024207053967
2.912,-0.008350212215193751
2.916,0.007900088589546286
2.92,-0.010101358987563355
2.924,0.014892352844598663
2.928,-0.01993907207815713
2.932,-0.06377244179994235
2.936,-0.03445837569328411
2.94,-0.021462821467672137
2.944,-0.02476181901712291
2.948,-0.03738155792084241
2.952,-0.03387870792198303
2.956,0.02492248302690079
2.96,-0.06334092388694618
2.964,-0.040790183113915336
2.968,0.015128507410144921
2.972,-0.051297775296303645
2.976,0.03309608415347104
2.98,0.011364478520125211
2.984,0.01830918704032733
2.988,-0.03071980907946596
2.992,0.01749438497316951
2.996,0.03235508214893339
3.0,0.02825289768782096
3.004,0.04780789332389445
3.008,0.03390938742053269
3.012,0.10130447525914273
3.016,0.04943021483506926
3.02,0.050640137432847884
3.024,0.021590591719261434
3.028,0.05428960472682967
3.032,0.08295333525254306
3.036,-0.0014853730456916153
3.04,0.038414187205356186
3.044,0.03454822503154753
3.048,0.02406785141648845
3.052,0.059305378957389084
3.056,0.0029229217548394186
3.06,-0.03589451493031594
3.064,-0.01773517663913635
3.068,0.03349033502421947
3.072,0.01735704068768292
3.076,-0.01640795579093496
3.08,-0.03180403274819932
3.084,-0.061096439636027365
3.088,-0.07471038496523477
3.092,-0.049876012244803036
3.096,-0.037836856731337166
3.1,-0.01207249528090512
3.104,-0.022619965334974772
3.108,-0.05379935093370859
3.112,-0.0029844656959924915
3.116,-0.05180321735190567
3.12,-0.05324438005370063
3.124,-0.023841733789749707
3.128,-0.07240283009371891
3.132,-0.04294481069161821
3.136,-0.0427341036130599
3.14,-0.06019958367992739
3.144,-0.04880631518218531
3.148,-0.02895185988711265
3.152,-0.027024059819964648
3.156,-0.020540146506876307
3.16,-0.043300079073813925
3.164,-0.07289635729502408
3.168,-0.10871370999591644
3.172,-0.06498332313634728
3.176,-0.05531981942125587
3.18,0.0195866306457156
3.184,0.17776582197449314
3.188,0.42258761138007506
3.192,0.6609544646616728
3.196,0.875713927596151
3.2,0.967272841547358
3.204,0.8476353422777592
3.208,0.685180571413703
3.212,0.3851198213523138
3.216,0.1608758254431254
3.22,0.020094199715187555
3.224,-0.1494058513209762
3.228,-0.224237572624286
3.232,-0.24353796171926645
3.236,-0.14546593567813162
3.24,-0.14958350338277987
3.244,-0.092460011099236
3.248,-0.06996199379799564
3.2520000000000002,-0.0422767993582341
3.2560000000000002,-0.013445760176191262
3.2600000000000002,-0.07893579341303808
3.2640000000000002,-0.0372846377731318
3.2680000000000002,-0.003258699860307735
3.2720000000000002,-0.02635741576765714
3.2760000000000002,-0.04321159511847768
3.2800000000000002,-0.016209976324441926
3.2840000000000003,-0.0022069170229120326
3.2880000000000003,-0.022810804565814708
3.2920000000000003,-0.04411851458040257
3.2960000000000003,-0.0189468248886222
3.3000000000000003,-0.047294799638537915
3.3040000000000003,-0.027423632468258498
3.3080000000000003,-0.06688297309922742
3.3120000000000003,-0.02630284637012372
3.3160000000000003,-0.014078147745627427
3.3200000000000003,-0.036826510309512554
3.3240000000000003,-0.02324595860179647
3.3280000000000003,-0.007725873454075424
3.332,-0.03609333185986708
3.336,-0.01047596775470572
3.34,-0.02501024606722386
3.344,-0.0478933415626144
3.348,-0.002327061609578747
3.352,0.043467385517205706
3.356,0.014244072762094339
3.36,0.03823987095510514
3.364,0.035634015269421115
3.368,-0.02332003805149102
3.372,0.011742423082809057
3.376,0.09906365531585756
3.38,0.04001343991317297
3.384,0.02585549582922455
3.388,0.08163705788096537
3.392,0.01838831617260376
3.396,0.03704994918004733
3.4,0.09337568329910177
3.404,0.1060898044115942
3.408,0.11435511437108656
3.412,0.06908571704153943
3.416,0.12920413598159464
3.42,0.10152139995358841
3.424,0.14859181468950455
3.428,0.17173578213958418
3.432,0.16777773432155352
3.436,0.14617477566691528
3.44,0.18918547208199377
3.444,0.18978135150049968
3.448,0.23749033956602295
3.452,0.1730973011741831
3.456,0.19763010322364488
3.46,0.21189869318577756
3.464,0.19699468871492068
3.468,0.2009672236600603
3.472,0.20493564737596215
3.476,0.1998790572358897
3.48,0.17567062040464468
3.484,0.14477469676925825
3.488,0.20059550377883867
3.492,0.14638739881927745
3.496,0.10436369356744762
3.5,0.1291477431816015
3.504,0.17759511805498202
3.508,0.11818180194792716
3.512,0.10659043737125373
3.516,0.049908980134957065
3.52,0.10095589242921475
3.524,0.04873999452191273
3.528,-0.04531756907850329
3.532,0.030712028059363218
3.536,0.04984469364477888
3.54,0.06903147038613605
3.544,-0.001282376960440628
3.548,0.021310700452768838
3.552,0.0600159769294891
3.556,0.040358032239515826
3.56,-0.03786125667129783
3.564,0.01673253608023167
3.568,0.043675886613161435
3.572,-0.05229517313828966
3.576,0.003953217673889481
3.58,-0.0025260777969054356
3.584,-0.006254481130008748
3.588,-0.030701449602347754
3.592,-0.04248937791595826
3.596,-0.05129583126092931
3.6,-0.048235581047310086
3.604,-0.006001876495352176
3.608,-0.05649263917904876
3.612,-0.04667116389283987
3.616,-0.037672913697965535
3.62,-0.016083124184759143
3.624,-0.026967538313397366
3.628,-0.03222717663481158
3.632,-0.025065632392305956
3.636,-0.02369079467581322
3.64,-0.04967896160120274
3.644,-0.018698206285347043
3.648,-0.00844305431581327
3.652,0.0038465412615284224
3.656,-0.008396075558799393
3.66,-0.04752755789367373
3.664,-0.003167691658241635
3.668,-0.0767931916853836
3.672,-0.020780610741647797
3.676,-0.0776986168068938
3.68,-0.028689127955827873
3.684,-0.06245799841269048
3.688,-0.0040913317461031135
3.692,-0.010977825126306733
3.696,-0.06386061926821862
3.7,-0.05556249719330979
3.704,-0.03739336673616986
3.708,-0.01651453361460522
3.712,-0.0969248922558385
3.716,-0.03353830328888732
3.72,-0.02429299447878811
3.724,-0.023432030351261523
3.728,-0.04619804206974637
3.732,-0.06091097938860379
3.736,-0.04048863650878269
3.74,-0.03102236771651009
3.744,-0.037901928278952446
3.748,-0.04879748469843037
3.7520000000000002,-0.03812788919067771
3.7560000000000002,-0.06306750838489582
3.7600000000000002,-0.04878501696162618
3.7640000000000002,-0.045623449536416255
3.7680000000000002,-0.04291982918390193
3.7720000000000002,-0.021778484463875286
3.7760000000000002,-0.06409010126867842
3.7800000000000002,0.023413360603265834
3.7840000000000003,-0.01395761909880038
3.7880000000000003,-0.055345321618444215
3.7920000000000003,-0.06575741759816268
3.7960000000000003,-0.03031061274693934
3.8000000000000003,0.03847604625180157
3.8040000000000003,-0.0009530243590944549
3.8080000000000003,0.00799331121454683
3.8120000000000003,-0.014443584562667174
3.8160000000000003,0.038924345108137706
3.8200000000000003,0.008278394589112108
3.8240000000000003,-0.007398620807679893
3.8280000000000003,0.029389677359376337
3.8320000000000003,-0.02161542291290423
3.8360000000000003,0.0030230053503876586
3.84,0.06702979360203534
3.844,0.02223494276569271
3.848,0.09417809239578205
3.852,0.007494050898231137
3.856,0.05718997861190996
3.86,0.08085655063373315
3.864,0.06556078997715767
3.868,0.02736132009375132
3.872,0.01575194910267478
3.876,0.003439639258825393
3.88,0.00214240307955145
3.884,0.036424577855632155
3.888,0.015000237234243468
3.892,0.03948036577643462
3.896,-0.03886929642749837
3.9,-0.022746410296817142
3.904,0.04496354333438245
3.908,-0.014922620080124759
3.912,-0.028390031826004324
3.916,-0.015928754740194423
3.92,-0.04528532137167216
3.924,-0.056279149108001005
3.928,-0.023942056699731734
3.932,-0.024935520294900003
3.936,-0.06873503327781058
3.94,-0.009941782139799066
3.944,-0.0379966797393093
3.948,0.015851329106131844
3.952,-0.016143935944374545
3.956,-0.0495565940303678
3.96,-0.04780395090767743
3.964,0.012254010927702619
3.968,-0.033780300578783146
3.972,-0.004366951322169195
3.976,-0.0029650180031073163
3.98,-0.04636204154411468
3.984,-0.02681578906000704
3.988,0.01892968809123538
3.992,-0.05816436720721489
3.996,-0.016083406481736714
4.0,-0.1097212858719419
4.0040000000000004,-0.01879122715508122
4.008,-0.06367833926401531
4.0120000000000005,-0.037119018864898504
4.016,0.1562975172029812
4.0200000000000005,0.36397354072457966
4.024,0.6003134218409539
4.0280000000000005,0.7943399199214779
4.032,0.9528200980820439
4.0360000000000005,0.9869610858185286
4.04,0.7932110365815901
4.0440000000000005,0.4782461063441752
4.048,0.2099521249912791
4.0520000000000005,0.06520887885811741
4.056,-0.1302597334409326
4.0600000000000005,-0.1821934080432768
4.064,-0.1547135541135843
4.0680000000000005,-0.11893195956466307
4.072,-0.12054908851119416
4.0760000000000005,-0.09913442342017231
4.08,-0.05795170587250377
4.0840000000000005,-0.0133682712273584
4.088,-0.027445739637738623
4.0920000000000005,0.0004624328780594711
4.096,-0.044537065734026327
4.1,0.03254254714708816
4.104,0.009988591941390505
4.108,-0.0450171333844403
4.112,-0.0227009481714746
4.116,-0.04738276220601083
4.12,-0.03722858205495727
4.124,-0.05462208371580644
4.128,-0.00439236347460319
4.132,-0.039764383116184784
4.136,-0.008712571379001131
4.14,-0.01763696475122466
4.144,-0.005063039228405276
4.148,0.000194292662069398
4.152,-0.049655306049721806
4.156,0.0514716626898492
4.16,-0.048456127244195284
4.164,-0.024427002637254506
4.168,-0.0011824327418786537
4.172,0.07146252970766888
4.176,-0.008559717106517603
4.18,0.005538015825757293
4.184,-0.006475921939150649
4.188,0.0431223203476551
4.192,0.03707070557486185
4.196,-0.0047212068635575696
4.2,0.028930366648264746
4.204,0.03410882893161376
4.208,0.030954982567002177
4.212,0.06413343287070897
4.216,0.09736472866365078
4.22,0.08564253280173098
4.224,0.03635014990549106
4.228,0.06255490991401502
4.232,0.0664107826031034
4.236,0.07795901105227665
4.24,0.11591353191030425
4.244,0.0918917020293863
4.248,0.1619920222972221
4.252,0.18507877732958689
4.256,0.14896442525419165
4.26,0.18932384386633838
4.264,0.1776597450524349
4.268,0.2012321418654182
4.272,0.21448549095885724
4.276,0.23687359617995618
4.28,0.1990397533842495
4.284,0.1861335041203946
4.288,0.3023867116559753
4.292,0.21218454523768834
4.296,0.2365010493808828
4.3,0.23360067176890978
4.304,0.2381855113757876
4.308,0.23262493982011143
4.312,0.219108875836613
4.316,0.19551129545548968
4.32,0.20955392803235479
4.324,0.18032449885584592
4.328,0.1551200863641023
4.332,0.1527801754829158
4.336,0.17271231256568836
4.34,0.12287286218545192
4.344,0.10758659104930743
4.348,0.0976702740889567
4.352,0.10394372960429694
4.356,0.08460817982304708
4.36,0.05740059860475286
4.364,0.06929022139820176
4.368,0.11965698321273319
4.372,0.07793805291577771
4.376,0.008582956810101034
4.38,0.0433251528150231
4.384,0.04237421708769037
4.388,0.05882624324583283
4.392,0.049358392235034354
4.396,-0.021674779682888567
4.4,0.036823229903368754
4.404,0.014375772388924518
4.408,0.0035865336812582202
4.412,0.010194169239320981
4.416,-0.0074797985426354905
4.42,-0.014169872883543218
4.424,0.03328654350068047
4.428,-0.028538114234848734
4.432,0.007538991367499757
4.436,-0.025222142789702515
4.44,0.009791417024049728
4.444,-0.028635962295736134
4.448,-0.029200768809778024
4.452,-0.005200441056482519
4.456,0.032117886732717135
4.46,-0.00487246161199691
4.464,-0.01162112082165174
4.468,-0.038589713190794954
4.472,0.017903792260178332
4.476,-0.02031932661826753
4.48,0.019432567230342666
4.484,0.038059435964940894
4.488,-0.0004968232714975714
4.492,0.01580846857072293
4.496,-0.053397669595076094
4.5,0.010067402185889751
4.5040000000000004,0.0008291129034045846
4.508,0.01672662694865617
4.5120000000000005,-0.06484066132623019
4.516,-0.015592024543835946
4.5200000000000005,0.016968709339729306
4.524,0.03881349735675439
4.5280000000000005,-0.01484756157551378
4.532,0.009551340715210088
4.5360000000000005,-0.0026911336939250624
4.54,-0.005466574030982281
4.5440000000000005,-0.047648388557569976
4.548,0.0011779342407978377
4.5520000000000005,-0.008514326955756473
4.556,0.032407405386213776
4.5600000000000005,-0.03874932795615036
4.564,-0.020064782650823423
4.5680000000000005,-0.022180801423487353
4.572,0.04925462376712001
4.5760000000000005,0.044865918368463396
4.58,-0.006311625465353312
4.5840000000000005,-0.0023337194198427536
4.588,0.009340648207266475
4.5920000000000005,0.0059057121022503675
4.596,-0.03093841507832782
4.6000000000000005,-0.01569278257008593
4.604,0.005636818223050705
4.6080000000000005,0.006117489637752555
4.612,0.01497337751928465
4.616,0.01105456308846185
4.62,0.03244297110781695
4.624,-0.0070688668532575445
4.628,0.007400711557537132
4.632,0.061879545580749644
4.636,0.05613794183315823
4.64,0.02363950386031032
4.644,0.03650072834157006
4.648,0.038835273331065435
4.652,0.020405056084487668
4.656,0.0075679687556329325
4.66,0.05101527167363824
4.664,0.05458504763219195
4.668,0.0457911968094841
4.672,0.07622957408635735
4.676,0.09804925986990466
4.68,0.1032129907341651
4.684,0.11806910691873757
4.688,0.09143172396395526
4.692,0.07187742920906082
4.696,0.12933242725275151
4.7,0.04312190997043803
4.704,0.04234442583691834
4.708,0.01397636265726969
4.712,0.06110861993704424
4.716,0.08132419818106311
4.72,0.0353229259653381
4.724,0.05110962462910794
4.728,0.023317694248067438
4.732,0.02933618702620884
4.736,0.012932393790789368
4.74,-0.007576938900044069
4.744,0.016718005093689117
4.748,-0.037919677246885254
4.752,0.037641605662800434
4.756,0.03129850182799362
4.76,0.015478581383914352
4.764,0.014479592568165521
4.768,0.05528267191242913
4.772,-0.005351724695971699
4.776,-0.006106958639105334
4.78,-0.019785741380698236
4.784,-0.01406381114737538
4.788,0.011724894126284021
4.792,0.003927704907051943
4.796,-0.006512363249141671
4.8,0.007653574286371999
4.804,-0.026511102940266342
4.808,-0.014844255526446396
4.812,0.003278552751618178
4.816,-0.0009444294285239612
4.82,0.010269191816383059
4.824,-0.016648668460185045
4.828,-0.005724411708190515
4.832,-0.029307071698857476
4.836,-0.03619855249024567
4.84,-0.04884731175923361
4.844,0.027847468258563966
4.848,0.14013247273178614
4.852,0.2746341931367037
4.856,0.5545063724307285
4.86,0.7931078703715471
4.864,0.9692332703767211
4.868,0.9769547686320155
4.872,0.8695923806291904
4.876,0.6282393807977007
4.88,0.36479977822611204
4.884,0.10478637791832765
4.888,-0.06860058812023304
4.892,-0.1398404738481815
4.896,-0.20738085501287307
4.9,-0.18940583258254984
4.904,-0.09890365357236798
4.908,-0.07625016997813705
4.912,0.010895737041145076
4.916,0.0005838725435838524
4.92,0.03698380647281712
4.924,0.03001367205109389
4.928,0.022058586400313933
4.932,0.0016066415675927773
4.936,-0.025085194437352173
4.94,0.03879147253505271
4.944,0.047747551780617146
4.948,-0.0168397934669832
4.952,0.021445053953181737
4.956,0.01963817576923873
4.96,0.030431610560472448
4.964,-0.002135958136454152
4.968,0.04299484990442001
4.972,0.003543773821006773
4.976,-0.02000517073929394
4.98,0.02110491317749135
4.984,-0.01100925054248034
4.988,0.030071813402535993
4.992,-0.0022811685028012764
4.996,0.05962463778471831
5.0,-0.01862344040318718
5.0040000000000004,0.08455275909480961
5.008,0.008470837205551671
5.0120000000000005,0.019214724832965636
5.016,0.0438779038435346
5.0200000000000005,0.06328371795797579
5.024,0.029646456193126794
5.0280000000000005,0.03827314019556874
5.032,0.03714167614457055
5.0360000000000005,0.04337032473666525
5.04,0.07412764552897283
5.0440000000000005,0.042313124731021154
5.048,0.03171414524381739
5.0520000000000005,0.058578444681332296
5.056,0.047815603726465025
5.0600000000000005,0.07638499432137066
5.064,0.12720078372226773
5.0680000000000005,0.11458501415432401
5.072,0.14473569846557524
5.0760000000000005,0.15837539070890858
5.08,0.16739918467643874
5.0840000000000005,0.1909228740361075
5.088,0.25995083563906907
5.0920000000000005,0.2104088790420659
5.096,0.23854314710250124
5.1000000000000005,0.21102068467809754
5.104,0.22526287078885734
5.1080000000000005,0.25205861979709704
5.112,0.22515571976005114
5.1160000000000005,0.3443709104522048
5.12,0.24534782340878636
5.124,0.2559424648061019
5.128,0.2842257327683875
5.132,0.26317039096337425
5.136,0.260758645491726
5.14,0.26013769194103653
5.144,0.23259445536226622
5.148,0.24525463497031869
5.152,0.24332175029377207
5.156,0.20568997882863235
5.16,0.18355794680469123
5.164,0.19301514285685514
5.168,0.12146427050831608
5.172,0.16576195312430375
5.176,0.15979434315751856
5.18,0.11961616728581892
5.184,0.1347257540359814
5.188,0.12885443005350147
5.192,0.11797570744516334
5.196,0.09268027646186303
5.2,0.09148406814054891
5.204,0.05676884016547335
5.208,0.0731803114268528
5.212,0.06429271153554414
5.216,0.037255221661948126
5.22,0.10565228622541964
5.224,0.06727284993792736
5.228,0.016303072785719287
5.232,0.03426223965222672
5.236,-0.004029838511859916
5.24,-0.00014089201861290646
5.244,0.0556410897474333
5.248,0.033543160574316666
5.252,0.007333494226828358
5.256,0.029713466514690916
5.26,-0.0078170099635889
5.264,0.006135884725253778
5.268,0.004700799986101456
5.272,0.025623691852258105
5.276,-0.004916643906147145
5.28,0.015643128300665984
5.284,0.016888040205724368
5.288,0.0002466861931437539
5.292,0.010320769252706242
5.296,0.030932015655385687
5.3,0.04901118317825351
5.304,0.039732639115027654
5.308,0.05638424680330169
5.312,0.041255234369648265
5.316,0.030279188088607002
5.32,0.021523709018741947
5.324,0.010910429175364864
5.328,0.00012158565584210676
5.332,0.022534993697038437
5.336,0.05033833035523275
5.34,-0.012748233534174404
5.344,-0.004094251234765558
5.348,-0.02987327280455753
5.352,0.03459283842374808
5.356,0.027423026984158036
5.36,0.025516902127120045
5.364,0.0019333659311220296
5.368,0.04379862958349645
5.372,-0.005359999148667471
5.376,-0.037641136474766905
5.38,0.012809863346005637
5.384,0.03811418661743339
5.388,0.06807910612811337
5.392,0.018424841809953508
5.396,0.041647103967730484
5.4,0.0245673499791959
5.404,0.014809538868118418
5.408,0.06260108821919858
5.412,0.03877099359496655
5.416,0.035353469654801906
5.42,0.03446818045252924
5.424,0.01282583240553056
5.428,0.027508723683983032
5.432,0.06455463013448311
5.436,0.03056763151440153
5.44,0.06684806816254735
5.444,0.03342957369772347
5.448,0.019094492578302535
5.452,0.03810793619220702
5.456,0.05715882621547093
5.46,0.0070963042953127095
5.464,0.022628505391995457
5.468,0.05982919935500049
5.472,0.05582977935489288
5.476,0.04020514535819015
5.48,0.06533829871363919
5.484,0.031547222952803405
5.488,0.06568728416701974
5.492,0.12048709613438902
5.496,0.04687964183418814
5.5,0.10899302592191826
5.5040000000000004,0.09653994737065374
5.508,0.055073113613489086
5.5120000000000005,0.04831138817052358
5.516,0.13743166587613972
5.5200000000000005,0.13602662073272007
5.524,0.13953263087796253
5.5280000000000005,0.0735836328666319
5.532,0.07625082201392577
5.5360000000000005,0.09847837599239868
5.54,0.1085745219895105
5.5440000000000005,0.06229736906835808
5.548,0.0500036724840296
5.5520000000000005,0.06348151853272946
5.556,0.07954570420726524
5.5600000000000005,0.09651117922472688
5.564,0.0487896109057323
5.5680000000000005,0.023528031347392547
5.572,0.05104252213295356
5.5760000000000005,0.058513062738174665
5.58,0.043738093263654965
5.5840000000000005,0.03654124715799362
5.588,0.05191548001780424
5.5920000000000005,0.008538267653623088
5.596,0.010369117021476335
5.6000000000000005,-0.005547847206867542
5.604,0.017994379348447064
5.6080000000000005,0.015516962105411232
5.612,0.012376809209196397
5.6160000000000005,0.03195515399476023
5.62,0.02453151707972909
5.6240000000000006,0.04894942918722435
5.628,0.057381056512350245
5.632,0.006287890292926673
5.636,-0.006285083864481317
5.64,0.043414656820140424
5.644,0.010064590534866623
5.648,-0.0141375313700195
5.652,0.05641816612441952
5.656,0.020709677209691742
5.66,0.018014189372784404
5.664,-0.02416677432656321
5.668,-0.06188708312605626
5.672,-0.023316055886447383
5.676,-0.07220073680839056
5.68,0.06961731812888307
5.684,0.20336207565348277
5.688,0.4938633971282276
5.692,0.7192639181232342
5.696,0.9176874931808597
5.7,1.0374400674481414
5.704,0.9238995092230452
5.708,0.716647808305786
5.712,0.4102874687587544
5.716,0.23186672192209556
5.72,-0.015916561965529395
5.724,-0.11702185491168403
5.728,-0.1583712384536896
5.732,-0.09987294069891439
5.736,-0.13341092630574125
5.74,-0.06016157190085254
5.744,-0.0463079642505837
5.748,-0.025349098768965066
5.752,0.04698247856274039
5.756,0.03252041476870638
5.76,0.015074135116186167
5.764,0.04163012783073383
5.768,-0.004424766195639335
5.772,0.043155363531398386
5.776,0.0587801287941688
5.78,0.01545704593917063
5.784,0.040807950375499086
5.788,0.011940031492006661
5.792,-0.003155301475756444
5.796,0.01585046033279125
5.8,0.05728436737409931
5.804,0.004941054903773043
5.808,0.010586981993984279
5.812,0.042148307518628025
5.816,0.04203721138999595
5.82,0.003973607993307822
5.824,0.03229671623509553
5.828,0.03063366623641225
5.832,0.06899157586756341
5.836,0.05201066687716315
5.84,0.06317187015228232
5.844,0.04598231453803864
5.848,0.06059534555451798
5.852,0.04005758038609382
5.856,0.026682013731989276
5.86,0.07526484295692581
5.864,0.04324791684759843
5.868,0.04780925185028489
5.872,0.050349270578486496
5.876,0.08823573733645941
5.88,0.054676424878093224
5.884,0.08451138477137293
5.888,0.134779369655057
5.892,0.10283854172080642
5.896,0.12685881238251515
5.9,0.1306379325991388
5.904,0.13083706622366537
5.908,0.1636353022583111
5.912,0.17269457566305313
5.916,0.17168817538873246
5.92,0.20708711263279683
5.924,0.17697766433569875
5.928,0.23054357289550548
5.932,0.2490748323090088
5.936,0.21058186098387602
5.94,0.2798433324401172
5.944,0.2713297781491174
5.948,0.23769454822905697
5.952,0.2622652050265529
5.956,0.2671143248360085
5.96,0.241456786030528
5.964,0.25719398762048856
5.968,0.22687726066291858
5.972,0.23371167114785985
5.976,0.24144667320212998
5.98,0.2047857504435331
5.984,0.23448586875138616
5.988,0.2080077716548735
5.992,0.20303397708882084
5.996,0.24656559456406416
6.0,0.18945723911586057
6.0040000000000004,0.23280416875644813
6.008,0.1870728657906751
6.0120000000000005,0.11225896419190515
6.016,0.16291510175362028
6.0200000000000005,0.14433430014280382
6.024,0.11007651302926996
6.0280000000000005,0.09929606051739447
6.032,0.05747797281486158
6.0360000000000005,0.0437681063412049
6.04,0.10520159645043455
6.0440000000000005,0.03621399729120321
6.048,0.0414647412162044
6.0520000000000005,0.07081828561481804
6.056,0.06698295656369699
6.0600000000000005,0.031227986230811175
6.064,0.03772472673498385
6.0680000000000005,0.05494386411880626
6.072,0.045629095454498246
6.0760000000000005,0.05659642134534958
6.08,0.03817432622669921
6.0840000000000005,0.032289605867656015
6.088,0.000326199801921119
6.0920000000000005,0.04370631686760686
6.096,0.019758708159646993
6.1000000000000005,0.01816613282120718
6.104,0.006518553809185666
6.1080000000000005,-0.004052176762698475
6.112,0.01888980996007584
6.1160000000000005,0.06844066323581498
6.12,0.026800083184896732
6.1240000000000006,0.005199030801771684
6.128,0.0015066645061947437
6.132000000000001,0.02059588034421542
6.136,0.026147178924152182
6.140000000000001,0.02934389607970273
6.144,0.006638070769214577
6.148,0.008602809119560847
6.152,0.00020779405591791686
6.156,0.020220350225301144
6.16,0.039603455231504936
6.164,-0.0028730975074524982
6.168,0.006387382000552819
6.172,0.07360222901305975
6.176,0.0030664056425642842
6.18,-0.018199906434883985
6.184,0.008218068105853422
6.188,0.04923437247653012
6.192,0.030218969309963952
6.196,0.009155993242103713
6.2,0.02009042902845274
6.204,0.011604142178295349
6.208,-0.001165360865413339
6.212,0.03623510831725735
6.216,0.0063905128144208945
6.22,0.047993738648523424
6.224,0.05845325611585547
6.228,0.019939457539101514
6.232,0.0009591255862607499
6.236,-0.014360849594721593
6.24,0.008846058674021592
6.244,0.02289101211120673
6.248,-0.007785571433981214
6.252,0.05752822542622256
6.256,0.056625177935437115
6.26,0.00012586758787934763
6.264,0.007727185535546099
6.268,0.06451844149287617
6.272,0.0025963713596846606
6.276,0.0013094726711449858
6.28,0.006490128975055005
6.284,0.038009636822804053
6.288,-0.031817104395224845
6.292,0.06992606678997082
6.296,-0.0015348792946502827
6.3,0.02704532889441766
6.304,0.03719199069644068
6.308,0.05780554644166716
6.312,0.01450023523532194
6.316,0.08668894268907568
6.32,0.051503186390099764
6.324,0.05560706187228831
6.328,0.030086684354848667
6.332,0.04036172327290895
6.336,0.09360191877026047
6.34,0.08121826534341293
6.344,0.08131659654336289
6.348,0.06580180733664458
6.352,0.12700740757763482
6.356,0.10688213897685653
6.36,0.0977105655346709
6.364,0.08452695596373494
6.368,0.12801350829210556
6.372,0.11094026210752138
6.376,0.11109989629805223
6.38,0.053260959396997064
6.384,0.015574925726368323
6.388,0.07455111885502724
6.392,0.04377187055572044
6.396,0.03365425356295471
6.4,0.04472348539106439
6.404,0.06958773147551545
6.408,0.011864764678652903
6.412,0.005076231691566473
6.416,0.07109496876679233
6.42,-0.004260348538798128
6.424,0.02013824903536736
6.428,0.005151818369166023
6.432,0.021449446095686345
6.436,-0.008769305589156978
6.44,-0.012826437154271526
6.444,0.01786800996140682
6.448,0.05026360980407304
6.452,0.02315173927580567
6.456,0.04776146971803892
6.46,0.00032381451251122136
6.464,0.037698005229281226
6.468,0.005869316859369235
6.472,0.03432490644090895
6.476,0.011894824484339558
6.48,-0.0007540487905655022
6.484,-0.020235572798607555
6.488,0.03574139189845394
6.492,-0.0004898508085727418
6.496,-0.0005090525518848393
6.5,-0.05830502264152939
6.5040000000000004,-0.07381629499527777
6.508,-0.048185577055771464
6.5120000000000005,0.0320907986451488
6.516,0.1499004029725413
6.5200000000000005,0.39491468661150153
6.524,0.6370054788508646
6.5280000000000005,0.8387743898395279
6.532,1.0034151853993418
6.5360000000000005,0.9870248833870092
6.54,0.7961995977509508
6.5440000000000005,0.5166786805471346
6.548,0.27340218798952753
6.5520000000000005,0.0684048554457952
6.556,-0.05028525395836586
6.5600000000000005,-0.1531952889671103
6.564,-0.12212155549537577
6.5680000000000005,-0.19374242115256438
6.572,-0.10577114231472576
6.5760000000000005,-0.04783262751410265
6.58,-0.025598044797230775
6.5840000000000005,-0.015178646721481451
6.588,0.0013330511724269564
6.5920000000000005,0.0004074919730210347
6.596,-0.022736440898389422
6.6000000000000005,-0.020303440814630248
6.604,-0.018466512974259237
6.6080000000000005,0.03777981807405131
6.612,0.04546003751622278
6.6160000000000005,-0.02951447571263477
6.62,0.009346569324603468
6.6240000000000006,-0.020914361487438627
6.628,0.04335979877332941
6.632000000000001,0.02068568041145868
6.636,0.000214299795670796
6.640000000000001,0.011248866078638828
6.644,0.0016338643228907689
6.648000000000001,-0.06130895741781825
6.652,0.025421271643779553
6.656000000000001,0.03945106933545646
6.66,-0.038287373036447414
6.664,0.01267524211014817
6.668,0.023426045470183742
6.672,0.0449627617303441
6.676,-0.013108741943619912
6.68,-0.004425868289686002
6.684,-0.0025765347888893272
6.688,0.026036683010591106
6.692,0.034950877627878796
6.696,0.029223639540847987
6.7,0.024557588393082287
6.704,0.020334759619633727
6.708,0.07312321466867516
6.712,0.09812847102350455
6.716,0.09159070498570815
6.72,0.07857313862348166
6.724,0.03377289652308508
6.728,0.09714982510460797
6.732,0.13135621926509822
6.736,0.07515755216822004
6.74,0.11272985094863937
6.744,0.09425800829904979
6.748,0.17675749636139673
6.752,0.16956417217166048
6.756,0.19932710341253526
6.76,0.1868477630271424
6.764,0.18956419712363654
6.768,0.2279309836533391
6.772,0.25292107992013807
6.776,0.23896433956345922
6.78,0.18232204658933368
6.784,0.24648321910268864
6.788,0.19285277057456165
6.792,0.2652040707929733
6.796,0.2350596946384897
6.8,0.1421476828974963
6.804,0.23606669113347065
6.808,0.2599223184885563
6.812,0.1977368809574597
6.816,0.19571444887697198
6.82,0.2406763393500191
6.824,0.2056547785003166
6.828,0.14636789629629654
6.832,0.17694912432032012
6.836,0.13991856732179384
6.84,0.11929253389160355
6.844,0.16551333697873788
6.848,0.08898308065400522
6.852,0.09516458354907101
6.856,0.0789926597255935
6.86,0.09023111784675136
6.864,0.02099244614535002
6.868,0.05994422113722706
6.872,0.05950814566135393
6.876,0.009816273515497749
6.88,-0.007137860791702325
6.884,0.04357371233387769
6.888,-0.0004521662763030329
6.892,0.035083749993390485
6.896,0.04192526358289199
6.9,-0.025356783865457318
6.904,0.0004215062454074152
6.908,0.01531275522324072
6.912,0.02034022937187959
6.916,0.008805139051401222
6.92,0.03534022492726038
6.924,-0.014236093136685507
6.928,0.028143135818431003
6.932,-0.021510148040675886
6.936,-0.018858360251662654
6.94,0.027917950263437637
6.944,0.023771513930059916
6.948,-0.03747200182681397
6.952,0.020915339829338575
6.956,-0.049761041249161135
6.96,0.016389535115878383
6.964,-0.017405096750084073
6.968,-0.006242502285806583
6.972,-0.022464897174308076
6.976,0.0031004300656859007
6.98,-0.0032551276221823838
6.984,-0.029306649874427906
6.988,-0.013270581899131786
6.992,-0.03370328445528275
6.996,-0.011319212990514166
7.0,0.0016762878574234884
7.0040000000000004,0.013697669359150533
7.008,-0.028519020515095774
7.0120000000000005,-0.04101643435736767
7.016,0.01427609080217611
7.0200000000000005,0.020705953850021514
7.024,-0.03869013653540132
7.0280000000000005,-0.00592415731918285
7.032,-0.03371176220768992
7.0360000000000005,0.005995164304213979
7.04,-0.021057333396952607
7.0440000000000005,0.006050329446177562
7.048,-0.004391232558765281
7.0520000000000005,-0.05365560526173722
7.056,-0.016775804050077853
7.0600000000000005,0.012180299420742337
7.064,-0.017683235003946387
7.0680000000000005,0.010635222480215645
7.072,-0.013619403071198782
7.0760000000000005,-0.01679927849578583
7.08,-0.04436226106209343
7.0840000000000005,-0.06950248998041633
7.088,0.03991356704384769
7.0920000000000005,-0.009868150355253399
7.096,-0.030132638782332938
7.1000000000000005,0.006611816074526182
7.104,-0.0018900189844435747
7.1080000000000005,-0.01629329916258412
7.112,-0.03845945212119146
7.1160000000000005,-0.07411726725832654
7.12,-0.022299500162995846
7.1240000000000006,-0.024368849727009683
7.128,-0.030091457304288395
7.132000000000001,-0.05600054161970961
7.136,-0.013813604268147787
7.140000000000001,-0.002141352201113061
7.144,0.011529893710185497
7.148000000000001,-0.0018071938934790845
7.152,0.02919621917677062
7.156000000000001,0.015055565477134984
7.16,0.03808337516721665
7.164000000000001,0.017005621848486165
7.168,0.09960591330769172
7.172,0.05399390039110204
7.176,0.04304447738222657
7.18,0.03933291696396976
7.184,0.08097139473654918
7.188,0.06669528868224117
7.192,0.0470358560728701
7.196,0.054816931121354995
7.2,0.07162428886905418
7.204,0.04314597078812966
7.208,0.07177072643352221
7.212,0.02904680975869973
7.216,0.030832329310292277
7.22,-0.020313029572421273
7.224,0.04277893743585434
7.228,0.02056380091555953
7.232,-0.003903340630626373
7.236,-0.042940857166047744
7.24,-0.019903373114467077
7.244,-0.011936468411857519
7.248,0.020601285772576493
7.252,-0.0192767467871354
7.256,-0.009345306220399035
7.26,-0.02241355428205935
7.264,-0.03774405459569831
7.268,0.00030885362534108403
7.272,0.004357728727735061
7.276,0.009725384266821107
7.28,-0.053997745954550064
7.284,-0.04098802209272853
7.288,-0.03616664452725952
7.292,-0.04550295992053337
7.296,-0.04542787418741823
7.3,-0.010439308844432236
7.304,-0.004678603296067474
7.308,-0.03322893512511423
7.312,-0.035198777605590086
7.316,0.0020080234871452003
7.32,-0.031216922913459035
7.324,-0.05550980894710339
7.328,-0.04889559712569459
7.332,-0.07590121453431029
7.336,-0.06904015561217405
7.34,-0.09402381730242304
7.344,-0.05863271669852891
7.348,0.05564778264635985
7.352,0.30894611340233935
7.356,0.5538175060131012
7.36,0.7431145555653099
7.364,0.9006991303156885
7.368,0.9519111175275008
7.372,0.8584312935767955
7.376,0.6263497468641313
7.38,0.3457633510638695
7.384,0.10367557647393015
7.388,-0.12628339105051214
7.392,-0.1531422118916563
7.396,-0.21345761618426573
7.4,-0.17968335583715622
7.404,-0.14256348219933476
7.408,-0.11509812607984919
7.412,-0.05241044744751859
7.416,-0.08205417543002201
7.42,-0.02883708358779538
7.424,-0.013040293041825246
7.428,-0.08224283640534698
7.432,-0.06613460834151189
7.436,-0.016170889892253876
7.44,-0.00742506789313898
7.444,-0.049677122170117285
7.448,-0.03709453899732584
7.452,-0.03366961616193854
7.456,-0.051659530410452875
7.46,-0.020980803040748675
7.464,-0.0051838685977465375
7.468,0.006246172159836638
7.472,-0.028595696085669385
7.476,-0.030454004912418987
7.48,-0.04475919499470164
7.484,-0.050771550658197
7.488,-0.021139520968523097
7.492,-0.02512236283619509
7.496,-0.025787412458298888
7.5,-0.04815770627902262
7.5040000000000004,-0.04385362404096196
7.508,-0.018949668464269938
7.5120000000000005,-0.018351628772656912
7.516,0.02796068059751102
7.5200000000000005,0.011136669032410746
7.524,0.018826428885694666
7.5280000000000005,-0.024784364524318696
7.532,-0.02844422867199165
7.5360000000000005,0.018518706453554655
7.54,-0.0022135103900153517
7.5440000000000005,0.035763577695343045
7.548,0.058550150283443805
7.5520000000000005,0.07706687066983248
7.556,0.030826591029529633
7.5600000000000005,0.10257298542041615
7.564,0.09382815942077782
7.5680000000000005,0.10373692788687175
7.572,0.07549085237165096
7.5760000000000005,0.11333118580297702
7.58,0.139555139598025
7.5840000000000005,0.12152278393319084
7.588,0.13801965091128882
7.5920000000000005,0.16462761317868008
7.596,0.15251568014483013
7.6000000000000005,0.16896345375364577
7.604,0.18739418934198748
7.6080000000000005,0.1879978482885299
7.612,0.18773126339983706
7.6160000000000005,0.16945526466108515
7.62,0.24001723733888936
7.6240000000000006,0.2018380004817281
7.628,0.2461375075829559
7.632000000000001,0.20578504375523124
7.636,0.22851696818929929
7.640000000000001,0.19971721290446456
7.644,0.15882135005217268
7.648000000000001,0.17964567273792872
7.652,0.22728799176713108
7.656000000000001,0.18488590519493492
7.66,0.11910766006489598
7.664000000000001,0.18244966187054767
7.668,0.1479079883030905
7.672000000000001,0.13834420764268546
7.676,0.09250643950505377
7.68,0.06358200723169083
7.684,0.07867521484195722
7.688,0.10514276356942971
7.692,0.06972336600253667
7.696,0.044602583157853176
7.7,0.054103640200229224
7.704,0.011794172494017104
7.708,-0.0019818577530353945
7.712,0.019435927973371896
7.716,0.018214179463303577
7.72,0.012118144799326143
7.724,0.030687338427920118
7.728,0.00020229813851376302
7.732,0.0013128904525236164
7.736,-0.048641306819147634
7.74,-0.01750484639152614
7.744,-0.006324133229695401
7.748,-0.0424526589663445
7.752,-0.008911228489613652
7.756,-0.022651045423075458
7.76,0.021835786299699934
7.764,-0.037229314968070616
7.768,-0.029214690259060733
7.772,0.014566142975844628
7.776,-0.047024850948740676
7.78,-0.0029436005111956806
7.784,-0.028464599929416756
7.788,0.017737113830374754
7.792,-0.08518070605398487
7.796,-0.0731094988505403
7.8,-0.019076123788657043
7.804,-0.0025159248864836635
7.808,-0.060289186742634664
7.812,-0.0665952433279065
7.816,-0.008979749727589286
7.82,-0.01057800355579517
7.824,-0.03295411860387567
7.828,-0.0780613999381424
7.832,-0.030801390328535447
7.836,0.013670038095133338
7.84,-0.047168920275292
7.844,-0.031529816409453966
7.848,-0.07157232966386609
7.852,-0.03522406805323171
7.856,-0.025570060344712403
7.86,-0.059540911882468794
7.864,0.0016178777854556695
7.868,-0.056847102762681456
7.872,-0.02559599773458921
7.876,-0.04388115681821692
7.88,-0.041642344554591204
7.884,-0.024621796299113003
7.888,-0.02270897494260582
7.892,-0.030436724340581985
7.896,-0.08564875957682044
7.9,-0.016713943509579304
7.904,0.00018780282904704362
7.908,-0.04752631222961303
7.912,-0.004882500953497321
7.916,-0.03059067117978333
7.92,-0.034633705275320475
7.924,-0.04860121110382538
7.928,-0.00969724921874271
7.932,-0.021046652510637916
7.936,-0.027099414826135034
7.94,0.0003730039532752298
7.944,-0.05061056933086546
7.948,-0.043248647646407685
7.952,-0.02600842394796539
7.956,-0.027318555754189455
7.96,-0.0196591934770106
7.964,-0.033802842122775546
7.968,-0.05949694177721215
7.972,-0.016231766294851766
7.976,-0.0015686310670214275
7.98,-0.0438530315124883
7.984,0.02876208357816744
7.988,0.010801271342197771
7.992,-0.017873102695529285
7.996,-0.0315740291402325
8.0,0.020835197029257714
8.004,0.04029847295115322
8.008000000000001,0.04418985139060861
8.012,0.0028756795916909314
8.016,0.0006357402868384793
8.02,0.0476218476857373
8.024000000000001,0.033124161582757536
8.028,0.06361873577280296
8.032,0.00015809368387895845
8.036,0.09992943156877837
8.040000000000001,0.008283769049787563
8.044,0.003610768224740697
8.048,-0.05152408215292686
8.052,-0.03962395565958523
8.056000000000001,0.01479073284659485
8.06,0.03935485091236629
8.064,-0.05080651974901801
8.068,0.03291381882642439
8.072000000000001,-0.03131417691600272
8.076,-0.02024848730891349
8.08,-0.010112342912293171
8.084,-0.03332365566120246
8.088000000000001,-0.006818720289728108
8.092,0.003004276789345839
8.096,-0.03720438210040207
8.1,-0.04876201841391745
8.104000000000001,-0.0034999978336501397
8.108,-0.013241582463504691
8.112,-0.03881105180443048
8.116,-0.05917984014641767
8.120000000000001,-0.020913930165574652
8.124,-0.06116701349177644
8.128,-0.03681729658377788
8.132,-0.05214497556126568
8.136000000000001,-0.0030423966768457628
8.14,-0.061477243181406745
8.144,-0.020217486757151206
8.148,-0.017345823437404786
8.152000000000001,-0.04166228784203611
8.156,0.005428620204928153
8.16,-0.056827285239786765
8.164,-0.1205690918190632
8.168000000000001,-0.10773537306896265
8.172,-0.10647701871471303
8.176,-0.061472592298326786
8.18,-0.04545286374785695
8.184000000000001,0.2104104645823304
8.188,0.4198269235695019
8.192,0.7121332965369834
8.196,0.9267700573841008
8.2,0.98680281170074
8.204,0.8581631121601043
8.208,0.6451284465051406
8.212,0.401271990972737
8.216,0.13032255537282103
8.22,-0.075752353651982
8.224,-0.15288979535077668
8.228,-0.23148311113621917
8.232,-0.2080873718066115
8.236,-0.1481139415737935
8.24,-0.09602205491369777
8.244,-0.08572966012602246
8.248,-0.026597369794916594
8.252,-0.022716569687533966
8.256,-0.041035022948607267
8.26,-0.014227496421435344
8.264,-0.02315498302715005
8.268,0.003197317910859119
8.272,-0.01643588602034543
8.276,-0.04358574637267909
8.28,-0.031636227590774904
8.284,-0.03531424657826745
8.288,-0.01811214238240312
8.292,0.0028501066143067633
8.296,0.015229474732326859
8.3,0.0008694488114999142
8.304,-0.02786211151943492
8.308,-0.030809572021483544
8.312,-0.023480314150566665
8.316,-0.018630029714002818
8.32,-0.04717135214895396
8.324,-0.07725574834331816
8.328,-0.042951425671739464
8.332,-0.0518018186453356
8.336,-0.035595784961296915
8.34,-0.051876757335170845
8.344,-0.032498049348228746
8.348,-0.019866208689071747
8.352,0.006916192666550556
8.356,0.00908106754474474
8.36,-0.004915917804364038
8.364,-0.01131457312707768
8.368,-0.02555862800759337
8.372,0.05842440322937631
8.376,7.913053183312632e-05
8.38,-0.0005131046865934283
8.384,0.0250689728643027
8.388,0.07918866824934591
8.392,0.049681065054995276
8.396,0.030436476197390608
8.4,0.06303835804877633
8.404,0.0792764537619372
8.408,0.13391283281324884
8.412,0.0959913587275842
8.416,0.10790917762826668
8.42,0.13986189138267954
8.424,0.11812554372648461
8.428,0.16510218617604264
8.432,0.14922986799527518
8.436,0.23701718616840578
8.44,0.19229361928676775
8.444,0.23464259140438395
8.448,0.18528709688830228
8.452,0.1786822961937513
8.456,0.2172353856137997
8.46,0.2211937256328776
8.464,0.23431381743907867
8.468,0.23797611336905078
8.472,0.24499765964043907
8.476,0.21655956837701035
8.48,0.15832066379355766
8.484,0.20692092512608107
8.488,0.1709214792104973
8.492,0.14970351681937627
8.496,0.1299594823051756
8.5,0.16449262294772604
8.504,0.11647535581018245
8.508000000000001,0.08457009363722243
8.512,0.11760531855664698
8.516,0.07688649621549547
8.52,0.06951328198502149
8.524000000000001,0.10852070631314642
8.528,0.013528578373174754
8.532,0.04534861647489929
8.536,0.0018932207081471253
8.540000000000001,0.034374543356478694
8.544,0.027388263816740407
8.548,0.03238190200539193
8.552,0.012416273610269497
8.556000000000001,0.018048758744672832
8.56,0.026512014469144706
8.564,-0.034975728129076344
8.568,-0.015342644971215505
8.572000000000001,-0.029372647577104727
8.576,-0.004339647317457703
8.58,-0.009533845737033255
8.584,-0.05457493064634569
8.588000000000001,-0.00844648784043487
8.592,-0.03171873559496801
8.596,-0.050372204749966246
8.6,-0.01606844284592213
8.604000000000001,-0.04158035480243157
8.608,-0.0032172075644110315
8.612,0.0040575552916426415
8.616,-0.030630720165322388
8.620000000000001,-0.052099607126776276
8.624,-0.023878229270421984
8.628,-0.019447354228683458
8.632,0.0034336918979686777
8.636000000000001,-0.017676323018263503
8.64,0.013878571290169046
8.644,-0.02436137392441774
8.648,-0.03661403941706551
8.652000000000001,-0.02469635411062577
8.656,-0.002141678234943753
8.66,-0.0009343824130168231
8.664,-0.015266936091288682
8.668000000000001,0.007833175364589965
8.672,-0.0005105288798519514
8.676,-0.05158079136438913
8.68,-0.0019015339695874905
8.684000000000001,0.03209702983932611
8.688,0.000370124743005823
8.692,-0.04869350438066239
8.696,0.01054348642882056
8.700000000000001,-0.03718467431084644
8.704,0.004879707637733676
8.708,0.003274611627626524
8.712,-0.004414593330695816
8.716,-0.01019257812055352
8.72,-0.044272262883599055
8.724,-0.03164472739863598
8.728,-0.025173283919258337
8.732,-0.04535978745566234
8.736,0.01908537105201832
8.74,-0.054535022615667644
8.744,-0.061655436510399106
8.748,-0.041060919487386036
8.752,-0.030322182904016746
8.756,-0.007694807200766087
8.76,0.006225155828642911
8.764,-0.03971087715350784
8.768,0.00011875572235477659
8.772,-0.012966373209418179
8.776,-0.021303430944843632
8.78,-0.02569532116523928
8.784,0.01557103942363016
8.788,-0.003444344992461877
8.792,-0.016027089220851394
8.796,-0.0034045936805546864
8.8,0.013313714407382738
8.804,0.049064146458231636
8.808,0.004120357425007818
8.812,0.0013531675729910571
8.816,-0.02478971710707671
8.82,-0.030897307031701206
8.824,0.05888830668750434
8.828,0.0196863145894738
8.832,0.08819976794725384
8.836,0.011039742394635642
8.84,0.1160547358483639
8.844,0.04838366491897755
8.848,0.055203012337614155
8.852,0.11244191852066591
8.856,0.0849533525461764
8.86,0.039098149180944175
8.864,0.07348580007144805
8.868,0.053025637460202384
8.872,0.006275584123832001
8.876,0.05801999603262739
8.88,0.043062391403048746
8.884,0.030388204948505953
8.888,0.05770130657643947
8.892,-0.009023051243919786
8.896,-4.445472147388387e-05
8.9,0.024613251166593263
8.904,-0.007182766592740466
8.908,0.0027475218364659813
8.912,0.016279529989684606
8.916,-0.016781413066629385
8.92,-0.002909061735463989
8.924,0.025281921294045988
8.928,0.02021658302288902
8.932,-0.009763731059146623
8.936,-0.020316388249750152
8.94,0.021879305168901384
8.944,-0.0028769482689590797
8.948,-0.0039569344375689226
8.952,-0.025651463889155093
8.956,-0.0012004738807855565
8.96,-0.014017800960327214
8.964,-0.019450323322913753
8.968,-0.018038188564039118
8.972,0.02805939837844392
8.976,-0.015719105138191615
8.98,-0.07175740531366485
8.984,-0.019585887191815178
8.988,0.022991226537916083
8.992,-0.014295333222426532
8.996,-0.035651875998665185
9.0,-0.060380236636312166
9.004,-0.09095551486887847
9.008000000000001,-0.05729457706666001
9.012,0.014240081175900848
9.016,0.1471124326549527
9.02,0.39003168873923355
9.024000000000001,0.6286213336783782
9.028,0.8318802299913146
9.032,1.004633396286567
9.036,0.9802589809121366
9.040000000000001,0.806503479104985
9.044,0.5170403146591382
9.048,0.281275637982645
9.052,0.07150279773880311
9.056000000000001,-0.09407540528943403
9.06,-0.17652657255801837
9.064,-0.19566600488580835
9.068,-0.15434832255933484
9.072000000000001,-0.1188385403493558
9.076,-0.08127739726504936
9.08,-0.04888296581727695
9.084,-0.01423598287669245
9.088000000000001,-0.01571166111330579
9.092,0.009188647836949117
9.096,-0.01925573569341583
9.1,-0.002067722864450395
9.104000000000001,0.01640599307903092
9.108,0.0036103912335546723
9.112,-0.010512488033287777
9.116,0.010290320173077433
9.120000000000001,0.07922906768896451
9.124,-0.055424517223958726
9.128,-0.014365227062095313
9.132,0.0024772892418986783
9.136000000000001,0.012654318652692786
9.14,-0.027335120692021625
9.144,0.02162316529600273
9.148,-0.0136521943056692
9.152000000000001,-0.023817261368506905
9.156,0.01765870037767569
9.16,-0.03711196514824529
9.164,-0.004710597462179443
9.168000000000001,0.013219862504349197
9.172,-0.013635868281981062
9.176,-0.014448745695331217
9.18,0.041402827766317346
9.184000000000001,0.049331716824502686
9.188,0.0006150677618249473
9.192,0.05640691099970885
9.196,-0.009962920718619157
9.200000000000001,0.05105317950043135
9.204,0.060866523948249936
9.208,0.03214530691911538
9.212,0.011955697400685465
9.216000000000001,0.0521458359920415
9.22,0.07870213966721881
9.224,0.08089561207542711
9.228,0.09601008865925449
9.232,0.10511831771714604
9.236,0.15020236843283669
9.24,0.12127753753458852
9.244,0.1402472333794806
9.248,0.09865349053495974
9.252,0.1782197412173467
9.256,0.22978643047929231
9.26,0.1803552517148645
9.264,0.16436608611979053
9.268,0.2547387956069377
9.272,0.2198778733700019
9.276,0.17628486480979913
9.28,0.16653199323023127
9.284,0.2625600020908836
9.288,0.31217683602161567
9.292,0.29019058788504576
9.296,0.22976838304000266
9.3,0.23828611253969362
9.304,0.2532865005829116
9.308,0.20798864047403207
9.312,0.2019656384927889
9.316,0.22786550035007874
9.32,0.225412775489656
9.324,0.2410144100314912
9.328,0.18905751115270153
9.332,0.16458926149415296
9.336,0.18599898481815358
9.34,0.18586572182848876
9.344,0.2058900461159528
9.348,0.11957834210447278
9.352,0.11292608512451224
9.356,0.10815241706195172
9.36,0.03866081664980207
9.364,0.08720329746798203
9.368,0.09431210659851139
9.372,0.11424240362702345
9.376,0.05295872420849604
9.38,0.04531829256852313
9.384,0.08994259577740456
9.388,0.051924673584342766
9.392,0.025419216197456428
9.396,0.029705298250433904
9.4,0.0569349761511876
9.404,0.015395619268463154
9.408,0.04495953593033479
9.412,-0.0008725050700409669
9.416,0.02278811188288561
9.42,-0.022079210246027145
9.424,-0.006952531659323382
9.428,0.010580718510477797
9.432,0.004730342969428823
9.436,-0.008639478801103603
9.44,0.0666713459494448
9.444,0.0318806569156972
9.448,0.016021936989606616
9.452,0.043910791352890596
9.456,0.009688980484603774
9.46,-0.032624908036016
9.464,-0.02063112374853468
9.468,0.017253135701307678
9.472,0.02103531195240004
9.476,0.02646749313561742
9.48,0.01983123153926177
9.484,-0.008687088659176338
9.488,0.04652024194914495
9.492,0.0018092858311579176
9.496,-0.010645772383586908
9.5,0.022133279990458877
9.504,0.04562965541605431
9.508000000000001,-0.009543731867820513
9.512,0.007445083900170869
9.516,0.035755237962461814
9.52,0.013678085032229162
9.524000000000001,-0.011153542262948825
9.528,-0.0014986301405968093
9.532,0.02746474314605226
9.536,0.028475801470584292
9.540000000000001,0.03040625205571841
9.544,0.008760010334291132
9.548,-0.02464434803474625
9.552,0.013486298517912118
9.556000000000001,0.010933219459478253
9.56,0.043690522611663694
9.564,0.031198301920878083
9.568,0.05108485763984062
9.572000000000001,0.00042855493419870563
9.576,-0.011984499550473711
9.58,-0.008947743954174938
9.584,0.0004061307070049383
9.588000000000001,0.014594840631815702
9.592,0.020854668856212892
9.596,-0.004823507009882429
9.6,-0.026584655277684836
9.604000000000001,0.02818746220399678
9.608,0.045262098572158
9.612,0.01050885485471538
9.616,-0.00435007873398259
9.620000000000001,0.034798444843758256
9.624,0.0009589389555214878
9.628,0.046361843202970834
9.632,0.023573957154248492
9.636000000000001,0.0899604135405453
9.64,0.036181481271683025
9.644,0.06003087128636454
9.648,0.06658497637392431
9.652000000000001,0.07824624855942067
9.656,0.12466384878770795
9.66,0.07948074397714319
9.664,0.08642424959305234
9.668000000000001,0.07831347068785367
9.672,0.11239970454765189
9.676,0.07984846303437906
9.68,0.13538778485404163
9.684000000000001,0.09822840213385474
9.688,0.0693764944035021
9.692,0.09915633911064912
9.696,0.06177548631983187
9.700000000000001,0.11812004096868405
9.704,0.09869312251507444
9.708,0.12237882178637075
9.712,0.068397831143399
9.716000000000001,0.0853667455983785
9.72,0.055253478099750716
9.724,0.013485794625378765
9.728,0.031725937755386915
9.732,-0.012145372271839608
9.736,0.07346543652314494
9.74,0.0061383609652416425
9.744,0.03792167998686671
9.748,-0.014620086701077166
9.752,0.006349675141777207
9.756,0.037214055320118324
9.76,0.02119872157637656
9.764,-0.01804327595393561
9.768,0.025811858213294372
9.772,0.02789147889857452
9.776,0.031939125357279184
9.78,0.018405532709793292
9.784,0.006626237624129335
9.788,0.016134370660748156
9.792,0.010817939933881287
9.796,0.009779277716375604
9.8,0.026972493649761467
9.804,0.08245786264091223
9.808,0.0046283022403287265
9.812,0.06570047688245026
9.816,0.01921275896957527
9.82,-0.0015717947519652276
9.824,0.01300595930034421
9.828,-0.015205309654374718
9.832,-0.033977462512812126
9.836,-0.058200138113499014
9.84,-0.08545591221759907
9.844,0.004360057646932279
9.848,0.10517442078580262
9.852,0.3382092698032009
9.856,0.4964703438029751
9.86,0.8200084467744077
9.864,0.991585556901714
9.868,1.0349326809996964
9.872,0.8767234724317665
9.876,0.6525221866194159
9.88,0.34446610222068863
9.884,0.11839681221365898
9.888,-0.06447295063232805
9.892,-0.16461388497944562
9.896,-0.198576266350784
9.9,-0.15000209840467815
9.904,-0.1269637812137446
9.908,-0.06586382492570425
9.912,-0.017200856025356096
9.916,0.013527628662439303
9.92,0.031102154313586657
9.924,0.0034095773278182036
9.928,0.021447603235459536
9.932,0.012797238127807004
9.936,0.034453478471604675
9.94,0.05612510978641106
9.944,0.008290866895446242
9.948,0.01795399477614635
9.952,0.018682748549590303
9.956,0.052832233231728566
9.96,0.02429105083657279
9.964,-0.030936882126482847
9.968,0.013210782532004754
9.972,0.050464385645214084
9.976,0.022629483395796096
9.98,0.014016740087059474
9.984,0.01997804017955656
9.988,0.02667480338775901
9.992,0.034302780291494125
9.996,0.057366511182089866
10.0,0.05657463952488955
10.004,0.006302124514657219
10.008000000000001,0.04456514628706758
10.012,0.0361263416115681
10.016,0.08284953639460714
10.02,0.040279394169888204
10.024000000000001,0.034473527824324765
10.028,0.056076825569676345
10.032,0.06939958732378623
10.036,0.04835266230544247
10.040000000000001,0.08902997372382444
10.044,0.07642140162750734
10.048,0.0325025749930086
10.052,0.137543755397927
10.056000000000001,0.1035056204879045
10.06,0.12630232275860795
10.064,0.0973705437572571
10.068,0.12440562571521566
10.072000000000001,0.15636001389642742
10.076,0.15020057086074176
10.08,0.19210375152633163
10.084,0.15504388565085436
10.088000000000001,0.19244902358868213
10.092,0.2060858303465358
10.096,0.1724440860366714
10.1,0.21970716511716668
10.104000000000001,0.2573489792050856
10.108,0.2743066058092073
10.112,0.28016095810654695
10.116,0.27019278485046855
10.120000000000001,0.2857736877206314
10.124,0.23938950377249732
10.128,0.250439706542197
10.132,0.2384653056438122
10.136000000000001,0.25789141401813276
10.14,0.2562447505165887
10.144,0.24125948510577547
10.148,0.23397030985675016
10.152000000000001,0.2212759660032509
10.156,0.25134888118725424
10.16,0.18397694343872945
10.164,0.1916614578335782
10.168000000000001,0.15377566287566197
10.172,0.2538867935726847
10.176,0.13615548277897024
10.18,0.16683167563643309
10.184000000000001,0.11138614839736599
10.188,0.12664254775586012
10.192,0.16661694859593612
10.196,0.11146834535343556
10.200000000000001,0.11107463608029619
10.204,0.08829810259315787
10.208,0.06476754006545565
10.212,0.011691711660956464
10.216000000000001,0.05480824623945857
10.22,0.06750081598676648
10.224,0.0308500862529811
10.228,0.00807200500617803
10.232000000000001,0.05183966417928208
10.236,0.09992423928461328
10.24,-0.004270743643918426
10.244,0.0164274488529831
10.248,0.05901249265062358
10.252,0.02677570477847791
10.256,0.02074850257806048
10.26,0.008097435367835713
10.264,0.06045883746762471
10.268,0.05430689940287846
10.272,0.014048218730492619
10.276,0.0870695267449743
10.28,0.038936394900416046
10.284,0.07981926666472966
10.288,-0.014122723896911209
10.292,0.05711547242167085
10.296,0.049275929367370214
10.3,0.02772986313213068
10.304,0.05833974233638342
10.308,0.05303669165828119
10.312,-0.0005063057645836207
10.316,-0.007482545207454127
10.32,0.016825223683106325
10.324,0.04552104351398062
10.328,0.04398499781811461
10.332,0.02572559002918601
10.336,0.04452700029549841
10.34,0.004966639979405319
10.344,0.047797389244319255
10.348,0.013564044440821389
10.352,0.03842920785413951
10.356,0.05060934202367979
10.36,0.027674667351903794
10.364,0.022222215405909903
10.368,0.03156917614099612
10.372,0.029755817858708154
10.376,0.0033445945491618993
10.38,0.04739909515685192
10.384,-0.004008361855994229
10.388,0.07075471945347664
10.392,0.019375418297247576
10.396,0.006768266643975087
10.4,0.06393706810754149
10.404,0.03488251366744485
10.408,0.013258003713468507
10.412,0.02636366711477063
10.416,0.05993279000732832
10.42,0.08272478444392573
10.424,0.00786209345185928
10.428,0.03249814795768385
10.432,0.03208760610782726
10.436,0.008379688426376836
10.44,0.042472208257484864
10.444,0.019617504128954914
10.448,-0.013628424028445801
10.452,0.028786023796113124
10.456,0.0874455340700186
10.46,-0.001870360291861311
10.464,0.04265938166308539
10.468,0.020159569518525936
10.472,0.06967110673565294
10.476,0.06440006935997396
10.48,0.02599960227428341
10.484,0.0245466662859398
10.488,0.08410596480491478
10.492,0.04719146936803987
10.496,0.08843422819287064
10.5,0.08715656203030538
10.504,0.09815493262649234
10.508000000000001,0.13853975228748008
10.512,0.1248133250135742
10.516,0.1259606609641544
10.52,0.141024524877396
10.524000000000001,0.08393945701222237
10.528,0.13108461427331872
10.532,0.08255435792473685
10.536,0.08048996426981408
10.540000000000001,0.07017072185225162
10.544,0.11461042557081413
10.548,0.09117271335588008
10.552,0.07013398586771252
10.556000000000001,0.08943757156631252
10.56,0.050581005652201215
10.564,-0.010259743750613719
10.568,0.026290033473026626
10.572000000000001,0.04142414889571765
10.576,0.02417247854546683
10.58,0.03149905039379083
10.584,0.0298785178333626
10.588000000000001,0.01658993100898924
10.592,0.05561505565899323
10.596,-0.013486922184474951
10.6,0.026674986036064486
10.604000000000001,0.021733124879084964
10.608,0.033287545118842715
10.612,0.01667915849844103
10.616,0.042806385707028036
10.620000000000001,0.033509521962364265
10.624,0.06908150185860042
10.628,-0.01142125061473329
10.632,0.04396235480299576
10.636000000000001,-0.01926020211258271
10.64,0.05284722599891467
10.644,-0.025221716131592624
10.648,-0.0027133090525529903
10.652000000000001,0.02466820179467881
10.656,0.02833678797207542
10.66,-0.05946052648887065
10.664,-0.026510761558842605
10.668000000000001,0.015296477493965795
10.672,-0.04438184806462843
10.676,-0.0046699332095835565
10.68,0.09396430704130188
10.684000000000001,0.2488546021038617
10.688,0.46165091825713556
10.692,0.7224380220521573
10.696,0.9511286383240909
10.700000000000001,1.0653559023883594
10.704,1.0005514923948822
10.708,0.678892769936943
10.712,0.4083578921595879
10.716000000000001,0.18306585226495792
10.72,0.027787661040524922
10.724,-0.10891857172621876
10.728,-0.19194282591950654
10.732000000000001,-0.1731054052044827
10.736,-0.07133233995437047
10.74,-0.055065140570786535
10.744,-0.028426142855159243
10.748000000000001,-0.01375196714450853
10.752,0.011017108863218605
10.756,0.07931527352195081
10.76,0.05973734623523351
10.764,0.02234405652868744
10.768,-0.014193099198974258
10.772,0.032740593702140254
10.776,0.03253641734825935
10.78,0.02276856648326686
10.784,0.002901010751977809
10.788,0.0537462181168671
10.792,-0.020913190746479952
10.796,0.0051155392790618245
10.8,0.025977507448250784
10.804,0.04104513753340438
10.808,0.03965320940927676
10.812,-0.016328036863829817
10.816,0.03477228552823676
10.82,0.04186173759892479
10.824,0.011004930284751219
10.828,0.011071798428126138
10.832,0.031181683531521613
10.836,0.00026822384046964326
10.84,0.027583150735093175
10.844,0.011475159928716738
10.848,0.03510973959791799
10.852,0.047375103610107897
10.856,0.024142886627575327
10.86,0.06006334105916336
10.864,0.04568374368569102
10.868,0.08106615387762665
10.872,0.04636899499243691
10.876,0.06275283865132326
10.88,0.056944258466061194
10.884,0.04101837001692829
10.888,0.07687013162605534
10.892,0.0994128277568718
10.896,0.07246616240529428
10.9,0.14982402367351372
10.904,0.13147627629509914
10.908,0.10882826511341977
10.912,0.15273553363599404
10.916,0.17468948295342188
10.92,0.20117108039961826
10.924,0.2034502676280514
10.928,0.17110631705166754
10.932,0.19399992468116653
10.936,0.2538049418197805
10.94,0.2068727847719563
10.944,0.22038291919081918
10.948,0.22033656291722037
10.952,0.2791396915882071
10.956,0.21218009179780306
10.96,0.24816392203801774
10.964,0.24339909137937737
10.968,0.24922535801505824
10.972,0.3034793444582423
10.976,0.2725179700494746
10.98,0.17786373470294203
10.984,0.23052491345624707
10.988,0.18741854639724012
10.992,0.2192869871265366
10.996,0.21655496996241902
11.0,0.18498972491566254
11.004,0.1741306799476384
11.008000000000001,0.14764029508956733
11.012,0.0975423814369711
11.016,0.11915275783082861
11.02,0.12548964481501618
11.024000000000001,0.09282546317368533
11.028,0.051336035068076304
11.032,0.09414629411210203
11.036,0.07747265357906973
11.040000000000001,0.08998921327268139
11.044,0.027771493486068645
11.048,0.051963239877337294
11.052,0.07766994276545536
11.056000000000001,0.11644121164782997
11.06,0.03291457256255699
11.064,0.056956436623284305
11.068,-0.0034045115435355627
11.072000000000001,0.044777047290437265
11.076,0.023650148480862686
11.08,0.02027273818961619
11.084,0.03761177336685939
11.088000000000001,-0.0013319855215997677
11.092,-0.0011642054056045584
11.096,-0.03480828127959956
11.1,0.021132574113645542
11.104000000000001,0.04881662052940125
11.108,0.010991842988657283
11.112,0.03775912612374824
11.116,-0.020119767948078012
11.120000000000001,0.010938082249048943
11.124,0.00016125487628749352
11.128,-0.014721950929478873
11.132,0.00830965095823856
11.136000000000001,-0.024468565656594374
11.14,0.017373279774715887
11.144,-0.03562016590299041
11.148,0.009835613107563652
11.152000000000001,0.014624029608689002
11.156,0.013833105059815439
11.16,-0.017291933293867735
11.164,0.0158964379511514
11.168000000000001,0.0036955869667069877
11.172,-0.009388042713300808
11.176,0.02014002998968043
11.18,-0.005113434512536236
11.184000000000001,0.04409997519678619
11.188,0.012031429677787777
11.192,0.039665958770183994
11.196,-0.020197947855124323
11.200000000000001,0.00445500840881745
11.204,0.016088338407735468
11.208,-0.00976027360317783
11.212,0.006217445254921863
11.216000000000001,-0.009617884360009623
11.22,-0.01276622084173162
11.224,0.01978436283084629
11.228,-0.018930350046585488
11.232000000000001,0.017214743576849895
11.236,0.02874429675020926
11.24,0.009920993052320743
11.244,-0.015353237948452033
11.248000000000001,-0.03263593860716244
11.252,0.0022693821003428993
11.256,0.042969155497572804
11.26,0.014752633299519419
11.264,-0.017082073303410883
11.268,-0.01793602358961724
11.272,-0.005951793415261102
11.276,-0.010734198246509449
11.28,-0.016809870120415172
11.284,0.04995152904532503
11.288,-0.0016565062160616931
11.292,0.011108118003144676
11.296,-0.04895057421004607
11.3,0.0038698989881629075
11.304,0.027164140840735256
11.308,-0.010310558470332055
11.312,-0.03438867748738003
11.316,0.033828377384115725
11.32,0.03895377620049985
11.324,0.030164074603232685
11.328,0.04325156246982295
11.332,0.04236741982500272
11.336,0.08723434350070053
11.34,0.05404105718962644
11.344,0.07067076226050417
11.348,0.048724184179655995
11.352,0.12311975547327139
11.356,0.10735125781189064
11.36,0.04596847228881261
11.364,0.009651453606551001
11.368,0.10580546501394238
11.372,0.02781495811753961
11.376,0.03503699686715506
11.38,0.027677664692585622
11.384,-0.0006579245484580956
11.388,0.035863151573367176
11.392,0.02270658648665786
11.396,-0.012042343211396463
11.4,0.023399588274793652
11.404,0.03152720261991693
11.408,0.04031653894039279
11.412,0.02595049424086079
11.416,-0.0011651981812455525
11.42,0.018101675342095523
11.424,0.009173144025902212
11.428,-0.00584580287513647
11.432,-0.002430443438019774
11.436,-0.005849486484331342
11.44,-0.0573761630390117
11.444,-0.000452271714286882
11.448,0.005250431537607436
11.452,-0.018311583987147745
11.456,0.03625366099092875
11.46,-0.011625600387723213
11.464,0.03232419653456108
11.468,0.03060714307936912
11.472,0.03501033094949276
11.476,0.03471620998167689
11.48,-0.0025155220306128136
11.484,0.03649186439973285
11.488,0.04556069366965427
11.492,0.01778281222135713
11.496,0.012761626199525741
11.5,-0.07009977828783645
11.504,-0.09109744996813798
11.508000000000001,-0.07063291361873983
11.512,-0.031556848795932166
11.516,0.1369257900693627
11.52,0.34404074247549676
11.524000000000001,0.633381476188722
11.528,0.8188624479638908
11.532,0.9515298248635892
11.536,0.9153044798759594
11.540000000000001,0.7739140305127281
11.544,0.5080989351417854
11.548,0.25670309030788885
11.552,0.0010757206015686374
11.556000000000001,-0.09190252046078683
11.56,-0.2070079014737846
11.564,-0.20601996370317271
11.568,-0.15257036347917408
11.572000000000001,-0.1256054271531413
11.576,-0.07874678362744754
11.58,-0.06167347544741711
11.584,-0.011963743101546267
11.588000000000001,0.017482839121118438
11.592,-0.005795070975497563
11.596,-0.01906571245389491
11.6,-0.034861250162915025
11.604000000000001,0.02022357452192845
11.608,-0.04393157165490236
11.612,-0.01524317475179078
11.616,-0.028994678647500813
11.620000000000001,-0.0009679792451721481
11.624,-0.014437530777252228
11.628,0.006832716770910182
11.632,-0.03643180277683375
11.636000000000001,-0.021343233863694293
11.64,0.03239142046400641
11.644,-0.02582024456726833
11.648,-0.07066229384179956
11.652000000000001,0.004761970080872097
11.656,-0.0010413311737894533
11.66,-0.039971958799805404
11.664,0.00047567895627657723
11.668000000000001,0.007771263515889957
11.672,0.02221479641021345
11.676,0.028529352794006382
11.68,-0.030705413367750727
11.684000000000001,0.03824545302667259
11.688,0.04883777744383784
11.692,0.0240853242393428
11.696,0.048481444276809005
11.700000000000001,-0.012434950050060858
11.704,0.05125368397919819
11.708,0.05088353012952329
11.712,0.04231641166620331
11.716000000000001,0.0708860978085536
11.72,0.03695118770905048
11.724,0.054017556897245377
11.728,0.07655537638493384
11.732000000000001,0.1012861398821748
11.736,0.0817237874983189
11.74,0.0816435695053282
11.744,0.12921156055412064
11.748000000000001,0.1114148247862573
11.752,0.19136730781180872
11.756,0.14249616232501178
11.76,0.17568329010926445
11.764000000000001,0.14960598041099582
11.768,0.19603645989868632
11.772,0.1873205956938983
11.776,0.236569069768233
11.78,0.212906071915201
11.784,0.2126396941865493
11.788,0.22759041087494492
11.792,0.23779636786455804
11.796,0.19704809365655673
11.8,0.20207648810512618
11.804,0.20049155607242033
11.808,0.24406077390655456
11.812,0.16753082268671676
11.816,0.184487070352202
11.82,0.18102974495802354
11.824,0.17885824656674582
11.828,0.15163969263399482
11.832,0.175565197908809
11.836,0.119463651528806
11.84,0.15268946315135834
11.844,0.1082971324373038
11.848,0.10281002453963148
11.852,0.08680433153217555
11.856,0.08663127921159047
11.86,0.04935731441001819
11.864,0.06482195286147567
11.868,0.003735662642595762
11.872,0.02957431633134404
11.876,0.045459676154006874
11.88,-0.007574526990587485
11.884,-0.021183933622069273
11.888,0.014468659907873674
11.892,0.0036800393232196147
11.896,-0.005023105344104399
11.9,-0.006056761788164496
11.904,-0.005545278170920396
11.908,0.0026701816637992124
11.912,-0.02544115927939688
11.916,-0.02483851228971367
11.92,0.011523405998373773
11.924,0.010850361154562577
11.928,-0.017933664973058903
11.932,-0.03169461819939039
11.936,-0.003411077922673882
11.94,-0.052159474898091716
11.944,-0.03267415715975958
11.948,-0.02806355337050106
11.952,-0.027654051931081162
11.956,-0.05590837831571846
11.96,-0.02389598769151875
11.964,-0.04004654228016474
11.968,0.03281666873300467
11.972,0.0034963921963025637
11.976,-0.0007703255585268382
11.98,-0.05268806999287004
11.984,0.0096889431500134
11.988,-0.029608000717332588
11.992,-0.017436573997906102
11.996,-0.014371943982705155
