Time,Voltage
0.0,-0.03161431872604165
0.004,0.006431734806250946
0.008,0.02895441763469557
0.012,0.006290724800857409
0.016,0.03160447300560891
0.02,0.0708940966714533
0.024,0.08439450003811402
0.028,-0.0653612922366292
0.032,0.0512615881025975
0.036000000000000004,0.022829207115976344
0.04,0.05023419895539193
0.044,0.027328833345229377
0.048,0.00689388773798112
0.052000000000000005,-0.07419235862518936
0.056,-0.004840965223206518
0.06,0.008908111285881868
0.064,0.07189560209348167
0.068,-0.10556874951230932
0.07200000000000001,-0.02132542415396223
0.076,-0.08982345932418691
0.08,-0.007960566248361245
0.084,0.0033266113433181727
0.088,0.024920381295433787
0.092,-0.018520243258080146
0.096,-0.040837961670462365
0.1,0.020854974429070448
0.10400000000000001,-0.04876708894883209
0.108,0.020934629898999822
0.112,0.07993759093763232
0.116,0.09085245069104197
0.12,-0.023693117980801627
0.124,-0.02807543440360422
0.128,0.002539930388312261
0.132,0.042638303561329416
0.136,-0.006441072837340363
0.14,-0.023266733660735665
0.14400000000000002,0.011452068988619762
0.148,0.031105594956774747
0.152,-0.0742072220248485
0.156,-0.0008052870304199738
0.16,0.0721869790246403
0.164,0.01797073275685521
0.168,0.04564885623590181
0.17200000000000001,0.04798710500307214
0.176,0.022728234358080225
0.18,0.005978418573244139
0.184,0.07870323734625694
0.188,0.059862306233686116
0.192,0.013550903199816411
0.196,0.08583226810305047
0.2,-0.03428381312606543
0.20400000000000001,-0.03791630766213236
0.20800000000000002,0.0358766160812516
0.212,0.06174237718678666
0.216,0.05153470387128265
0.22,0.05797461714929306
0.224,0.09248073455624849
0.228,-0.05033295292205861
0.232,-0.03324132387308987
0.23600000000000002,0.07330061837196854
0.24,0.04567835787293162
0.244,-0.029556551322728945
0.248,0.027946164577846353
0.252,-0.0046433592456881015
0.256,-0.0014336125267606498
0.26,0.06189316051559385
0.264,-0.07382623070767275
0.268,-0.01999839889833755
0.272,0.017638807045686898
0.276,0.09000766041770836
0.28,-0.004872862315489154
0.28400000000000003,0.04676886980581143
0.28800000000000003,0.08210361476600406
0.292,0.05227770353387108
0.296,0.014128300987944572
0.3,0.04336771634283115
0.304,0.04194883112252348
0.308,0.06962830281758686
0.312,0.0002597783989862247
0.316,0.026642894807199446
0.32,0.04519641329191228
0.324,0.10831979603145542
0.328,0.07068273982837184
0.332,-0.026773646775940182
0.336,0.003126115176024749
0.34,0.05218169511479335
0.34400000000000003,0.09627279704957346
0.34800000000000003,0.023946945659606752
0.352,0.05820584451277422
0.356,0.10576467192397798
0.36,0.033491596816648
0.364,0.03196370051804782
0.368,0.06990136825813886
0.372,0.040014664711136086
0.376,0.07412498655998795
0.38,0.1039745323672132
0.384,0.0315315611750565
0.388,0.08145959208550213
0.392,0.01268617534600407
0.396,0.008871269753069944
0.4,-0.041869421675715036
0.404,0.07364828093882561
0.40800000000000003,0.0751309879585737
0.41200000000000003,0.03181370512612514
0.41600000000000004,0.03610609340904189
0.42,0.02858309318613133
0.424,0.15884042896491601
0.428,-0.1360340849726127
0.432,0.023832357221117484
0.436,-0.03448710550787778
0.44,0.1172338648546778
0.444,-0.03645171143325052
0.448,0.06459877421650302
0.452,0.13112806581136766
0.456,0.09423242894773223
0.46,0.11904265492155139
0.464,-0.06923827580995354
0.468,0.01857287391176466
0.47200000000000003,0.05316533069691716
0.47600000000000003,-0.04139973259499354
0.48,0.017078221486505035
0.484,0.047324107090321144
0.488,0.10474089930736741
0.492,0.06480214890655453
0.496,0.09323919992876735
0.5,0.14832540676994377
0.504,0.18362388483160924
0.508,0.12649245201085355
0.512,0.10058186156676599
0.516,0.004202457438423957
0.52,0.12099425603536021
0.524,0.1419013038246992
0.528,0.004300738090831327
0.532,0.1276149433619576
0.536,0.14693901150920874
0.54,0.010658348220135755
0.544,0.07663956475747173
0.548,0.05968292430824808
0.552,0.06446719017719083
0.556,0.13197314173724561
0.56,0.09843152247834466
0.5640000000000001,0.1041961804930336
0.5680000000000001,0.06631053871186957
0.5720000000000001,-0.017444152327659182
0.5760000000000001,0.09930343404938638
0.58,0.0617265135431043
0.584,0.02979770202132638
0.588,0.07741989465080612
0.592,-0.03953325965854511
0.596,0.11472485658859778
0.6,0.10326635165597038
0.604,0.10398383600436288
0.608,0.0038008551256193818
0.612,0.066179540299478
0.616,0.08078801147764013
0.62,0.07567292804714291
0.624,-0.017145983174112506
0.628,0.004416444604680943
0.632,0.1227869203254045
0.636,0.017040942997082822
0.64,0.05085856105645488
0.644,0.0674827984318213
0.648,0.04890779972275004
0.652,0.057588300482122226
0.656,-0.03484425604833924
0.66,0.020341047304973728
0.664,0.0640118632593103
0.668,0.07743051693909199
0.672,-0.023794511120339954
0.676,0.034192260334490535
0.68,0.12219630559172504
0.684,0.32172854219888514
0.6880000000000001,0.5737539302040966
0.6920000000000001,0.7502660610081974
0.6960000000000001,0.9360636806756327
0.7000000000000001,1.1091129490683356
0.704,0.9263791212650477
0.708,0.7623215722425684
0.712,0.4380977679468522
0.716,0.28053426110811036
0.72,0.04031467370957513
0.724,-0.07257715626607694
0.728,-0.1680636885824167
0.732,-0.19508008667246254
0.736,-0.20831203857810854
0.74,-0.0011414059138682466
0.744,0.027159039610909444
0.748,-0.0020871289876427668
0.752,0.02737719497091201
0.756,0.08241555220352657
0.76,0.03914733185141955
0.764,0.08109013601632209
0.768,0.09575401155818303
0.772,0.1472137717200128
0.776,0.03544663596379512
0.78,0.06955314407063734
0.784,0.08012549102617536
0.788,0.11512043108132329
0.792,0.07951256074346248
0.796,0.06043643973548685
0.8,0.07123162220214095
0.804,0.10424376236436465
0.808,0.08820072095974013
0.812,-0.003997576834055827
0.8160000000000001,0.04877814074206513
0.8200000000000001,0.1450716215667403
0.8240000000000001,0.07021061198076838
0.8280000000000001,0.09961002070178884
0.8320000000000001,0.07802235424020543
0.836,0.1030609891281171
0.84,0.13280476542859537
0.844,0.017436411448447132
0.848,0.12203759665062783
0.852,0.04289511687355707
0.856,0.1288367567982915
0.86,0.013792023021340472
0.864,0.09911944315064133
0.868,0.20203956713448445
0.872,0.1287019640778541
0.876,0.16981068037992247
0.88,0.12861360296125968
0.884,0.19540421330723373
0.888,0.23527428676637974
0.892,0.17117506384452705
0.896,0.2817763671921746
0.9,0.24019466711590448
0.904,0.17160296576103193
0.908,0.1941136572274913
0.912,0.14817389908241005
0.916,0.23795723030734203
0.92,0.3388541106904891
0.924,0.22741510173348414
0.928,0.2040993891340993
0.932,0.2942056443964212
0.936,0.34700165682765505
0.9400000000000001,0.2679980601270924
0.9440000000000001,0.28821297227554543
0.9480000000000001,0.28941789468986534
0.9520000000000001,0.2513437551492807
0.9560000000000001,0.35771088849075583
0.96,0.2700272244879817
0.964,0.30763105002829183
0.968,0.32934782842751953
0.972,0.3054377652510332
0.976,0.2839543967820729
0.98,0.3035410940065968
0.984,0.3279735426153715
0.988,0.335796748469526
0.992,0.22685090115121256
0.996,0.2810464340670113
1.0,0.24429200268084375
1.004,0.2587015079071002
1.008,0.27159069750524933
1.012,0.15929945563525577
1.016,0.2450312851037216
1.02,0.11070631472611096
1.024,0.18910900305202014
1.028,0.10819922350471911
1.032,0.10702901869195268
1.036,0.19390818744809524
1.04,0.20028475297819173
1.044,0.11878877343309027
1.048,0.12539494047669456
1.052,0.14481480033221264
1.056,0.14219442441875713
1.06,0.14033753650027384
1.064,0.06376379594806289
1.068,0.12053473689868158
1.072,0.01285056637694404
1.076,0.0485536777320239
1.08,0.13148667379168633
1.084,0.11825291851977818
1.088,0.023738596319787086
1.092,0.03687636338709986
1.096,0.07336570086868908
1.1,0.1319052622285046
1.104,0.14209239521576328
1.108,0.09373695169986301
1.112,0.057332913965337774
1.116,0.1197134567366113
1.12,0.16389022246701834
1.124,0.15588088737844133
1.1280000000000001,0.04097546994649989
1.1320000000000001,-0.001543911272421969
1.1360000000000001,0.15872874144627103
1.1400000000000001,0.07011351886708894
1.1440000000000001,0.09079645140916887
1.1480000000000001,0.08128416589516975
1.1520000000000001,0.1207542983802467
1.156,0.11970892033806406
1.16,0.10510343903360111
1.164,-0.0008714143859025886
1.168,0.0868264695151659
1.172,0.08723078516864985
1.176,0.09671371890145446
1.18,0.18843962945264836
1.184,0.1569995684975922
1.188,0.1472917970911342
1.192,0.1581162127306473
1.196,0.13306799892318186
1.2,0.23584857722506136
1.204,0.20484143852901465
1.208,0.1927231788945684
1.212,0.127675950364289
1.216,0.12806223897028338
1.22,0.12966379699928093
1.224,0.2330678110722997
1.228,0.12961199815443356
1.232,0.06654288049450427
1.236,0.12102975542757022
1.24,0.1813910966930087
1.244,0.03842455690374453
1.248,0.13157515184694013
1.252,0.15969643475844736
1.256,0.12170648534062524
1.26,0.07747523717881652
1.264,0.07987149343573216
1.268,0.1004265906500649
1.272,0.024251327192599523
1.276,0.07864975867383928
1.28,0.007092925432284958
1.284,0.05387019624111407
1.288,0.14103146044127146
1.292,0.12159845951124207
1.296,0.05866415214878355
1.3,0.07456846171220426
1.304,0.09069843080429475
1.308,0.022239364412107006
1.312,0.10853875387995485
1.316,0.03262371731812564
1.32,0.02112663939970838
1.324,0.016891140317947
1.328,0.07317399309943791
1.332,0.04515667435260609
1.336,0.07250003796015081
1.34,0.0008198402014979039
1.344,-0.0794267958749528
1.348,0.05684132912479356
1.352,-0.013370830483955234
1.356,-0.033201799977008103
1.36,0.13037552881514505
1.364,0.181687099495897
1.368,0.4586456645941867
1.372,0.6209895100417159
1.3760000000000001,0.9035249399298343
1.3800000000000001,1.0560961735934171
1.3840000000000001,1.0253767872369264
1.3880000000000001,0.8667490860604423
1.3920000000000001,0.6443017279851702
1.3960000000000001,0.3145333048554568
1.4000000000000001,0.08130209180158186
1.4040000000000001,0.027341174662870598
1.408,-0.042004961485711804
1.412,-0.07562206178716935
1.416,-0.10876221523786257
1.42,-0.03813493154925321
1.424,-0.037052933266206386
1.428,0.06664484988438246
1.432,0.05155688553498709
1.436,0.06141439197558697
1.44,0.10265762748691284
1.444,0.030817989197009475
1.448,0.06837211602375733
1.452,0.0342370026638488
1.456,0.028979463053121192
1.46,0.12348011827571528
1.464,0.15475885539910966
1.468,-0.02869278422369241
1.472,0.12513712271999924
1.476,-0.022604035354463023
1.48,0.09779044056954223
1.484,0.09395867895208088
1.488,0.034443273863116346
1.492,0.026591928448044505
1.496,0.11329014435557547
1.5,0.022856823190223655
1.504,0.09811397117389263
1.508,0.017409831797176735
1.512,0.004262394632132335
1.516,0.16731740953084373
1.52,0.14108502454375166
1.524,0.041497010626639255
1.528,0.10873939423248985
1.532,0.03828033204097527
1.536,0.03144662032898991
1.54,0.13239470638909762
1.544,-0.01645823516463138
1.548,0.08253927056505338
1.552,0.12844220822867777
1.556,0.1829782479939024
1.56,0.04616426455328644
1.564,0.01848330037052144
1.568,0.08634770694056185
1.572,0.07767109217732203
1.576,0.20595176561746217
1.58,0.11905058957743357
1.584,0.12085946741536283
1.588,0.14321702315344148
1.592,0.26856997255799187
1.596,0.205068235290786
1.6,0.24418992668832395
1.604,0.191246362358271
1.608,0.3217585243808271
1.612,0.2202468434956241
1.616,0.2600297477604438
1.62,0.3130884231889193
1.624,0.28626573651806175
1.6280000000000001,0.18572344446035122
1.6320000000000001,0.2821859537455377
1.6360000000000001,0.3104797915342871
1.6400000000000001,0.3553144351668408
1.6440000000000001,0.27732015251658304
1.6480000000000001,0.3361627432769622
1.6520000000000001,0.2858743244773549
1.6560000000000001,0.359941637528835
1.6600000000000001,0.27336297585868174
1.6640000000000001,0.286572153565536
1.668,0.298243023627692
1.672,0.20062643851557685
1.676,0.221819103272561
1.68,0.1606994220035854
1.684,0.1552696422277446
1.688,0.18506212324436722
1.692,0.16652542440563817
1.696,0.20007826553065214
1.7,0.1995640633856859
1.704,0.20856822905644826
1.708,0.10178811148397346
1.712,0.10771502280294065
1.716,0.08984408100958222
1.72,0.09810939304525962
1.724,0.09210654152559904
1.728,-0.018556700215332428
1.732,0.06262956384980992
1.736,0.009960936004310805
1.74,0.030082249510515822
1.744,0.08763040639873777
1.748,0.17506179639167088
1.752,0.1086982726669212
1.756,0.05383365955349975
1.76,0.04339065978237981
1.764,0.022790266169499744
1.768,0.09191925024977714
1.772,0.10412515503116285
1.776,0.03711380498697407
1.78,0.043031204075093026
1.784,0.03443052568480215
1.788,0.07968556545994596
1.792,0.03135043594819057
1.796,0.06532935981890509
1.8,0.030074214564706533
1.804,0.1491688980323091
1.808,0.03689371283721145
1.812,-0.0006600488188320958
1.816,0.05875880868050885
1.82,0.02931184979082544
1.824,0.055557714553138814
1.828,0.01560068038206263
1.832,0.032863745049387175
1.836,0.09958873640688773
1.84,0.09277310960588857
1.844,-0.014217272354797403
1.848,0.06247988306856391
1.852,0.17769639843110963
1.856,0.05870228504787247
1.86,0.14929283020405154
1.864,0.06720111809946619
1.868,0.11665327300902086
1.872,0.18776183114152184
1.8760000000000001,0.09791601768752137
1.8800000000000001,0.1222284782341979
1.8840000000000001,0.07398699590239315
1.8880000000000001,0.11928801692316839
1.8920000000000001,0.016030110350227833
1.8960000000000001,0.15242513613840825
1.9000000000000001,0.10215720168398995
1.9040000000000001,0.13281282209551548
1.9080000000000001,0.1189881519002432
1.9120000000000001,0.06818431902900247
1.9160000000000001,0.08276113166436239
1.92,0.0788843070073564
1.924,0.0020062647988472737
1.928,0.013634361549060031
1.932,0.1333322977157781
1.936,0.08276781255112234
1.94,0.024060252891432012
1.944,0.0785690714827993
1.948,0.023708668109440313
1.952,0.03931965420879961
1.956,0.058132337159182625
1.96,0.049185931956737705
1.964,0.10197444711031588
1.968,0.07991653336627719
1.972,0.020365343904963775
1.976,0.03552241946306516
1.98,0.06883085987884865
1.984,-0.0115376408494215
1.988,-0.06230504001636086
1.992,-0.0024703365906632926
1.996,-0.1021158304289712
2.0,0.10607679445568417
2.004,-0.014032836457064178
2.008,-0.03896544527962405
2.012,0.011923314259267872
2.016,-0.0484349436509228
2.02,0.009786825297610938
2.024,-0.009680024510625395
2.028,-0.003662854217713018
2.032,0.07897834907579676
2.036,0.03639669435854374
2.04,-0.07391901307290007
2.044,0.02782088158445177
2.048,0.2712842114538897
2.052,0.49083851697180825
2.056,0.7042540885063169
2.06,0.8603375696862523
2.064,1.072166068456442
2.068,0.8499121802039021
2.072,0.7072787112580424
2.076,0.43783869564435285
2.08,0.22202678054473568
2.084,0.07596270876715544
2.088,-0.1464273184515741
2.092,-0.19383620532735044
2.096,-0.19624800990334343
2.1,-0.13782681906734393
2.104,-0.038383965778313905
2.108,-0.03770905796629408
2.112,-0.09326541029995428
2.116,-0.03410747344720169
2.12,0.024055348586229534
2.124,0.011471738973413081
2.128,-0.06898920823583922
2.132,0.05706688889912351
2.136,-0.012873542363936855
2.14,0.09454989392556035
2.144,-0.003365344691612947
2.148,0.05624088667613138
2.152,0.0171807635866653
2.156,-0.011074038725268909
2.16,0.034667497001712705
2.164,0.029131015926044685
2.168,0.05578425136800626
2.172,-0.10476128043992922
2.176,0.018457812927980585
2.18,-0.020453802726993403
2.184,0.07227384126513428
2.188,-0.004446308384312578
2.192,-0.017579440509796238
2.196,-0.01193679331156584
2.2,-0.003814652455655503
2.204,0.03463830451891938
2.208,0.016212875461698383
2.212,0.003415659312187822
2.216,0.030242530205586378
2.22,0.04721224201152999
2.224,0.07713059966834412
2.228,0.05034090509404638
2.232,0.09910185779543151
2.236,0.056886308096923764
2.24,-0.015859720290315432
2.244,0.039791972358152114
2.248,0.021882545824260607
2.2520000000000002,0.10008222681200407
2.2560000000000002,0.15265677370985858
2.2600000000000002,0.04721221336180467
2.2640000000000002,0.07879000342749783
2.2680000000000002,0.20046166252284875
2.2720000000000002,0.0570951755668882
2.2760000000000002,0.1603210593750491
2.2800000000000002,0.18457527232368326
2.2840000000000003,0.1965085162537757
2.2880000000000003,0.18222725477731966
2.2920000000000003,0.15933997186186596
2.2960000000000003,0.07380815538767094
2.3000000000000003,0.2704031881314916
2.3040000000000003,0.24610330665524913
2.308,0.1891803118732135
2.312,0.30971918987911706
2.316,0.18969235124076672
2.32,0.28804174391398196
2.324,0.263734821758799
2.328,0.27927770659271844
2.332,0.2426195085355169
2.336,0.24052677934868
2.34,0.16071573444402465
2.344,0.15333961207510535
2.348,0.17149245344577907
2.352,0.22338562919939137
2.356,0.20582619489978043
2.36,0.07956236745526296
2.364,0.10317732344360209
2.368,0.15525818745622427
2.372,0.19337023065722408
2.376,0.07013768526874378
2.38,-0.024844280996839205
2.384,0.12439494186316877
2.388,0.12000653669816987
2.392,0.07986091257238913
2.396,0.06612779607247968
2.4,0.006978966520878892
2.404,0.07574126320047186
2.408,0.0676133203410774
2.412,-0.046050730033407636
2.416,0.06017023407805176
2.42,0.07021371480559938
2.424,-0.019886439403015474
2.428,-0.01670041995203235
2.432,-0.10975689035886374
2.436,0.07392762505466058
2.44,0.043864467635893765
2.444,-0.06419223385444259
2.448,-0.06944359050513006
2.452,-0.012838706507611385
2.456,0.01457998725164129
2.46,-0.05076281322161569
2.464,0.0607858723251984
2.468,0.060576725147331555
2.472,0.04307468381086724
2.476,0.10299274128264696
2.48,0.011645160845117353
2.484,0.08439970242114449
2.488,-0.06431513946278904
2.492,0.0628207278661274
2.496,-0.019259493019244435
2.5,-0.007754031813144135
2.504,-0.05665651068950219
2.508,0.025499875572205108
2.512,-0.018715573320415856
2.516,-0.01779346336677082
2.52,0.08345259353662346
2.524,-0.06098249568808223
2.528,-0.00022483044337855314
2.532,0.056793397715830626
2.536,0.027872243201611135
2.54,0.0769091666205483
2.544,0.03371570143120786
2.548,-0.0674911321859934
2.552,0.10223073430781111
2.556,0.007101200324362983
2.56,0.018586355251443143
2.564,0.06791644907427968
2.568,0.050621733977141564
2.572,0.02136672084194976
2.576,0.07485415805261875
2.58,-0.04573843959648342
2.584,0.03116347092548138
2.588,-0.023746575282401004
2.592,0.06033903047057519
2.596,-0.06537517682505344
2.6,-0.048063156516638596
2.604,-0.08950729025198823
2.608,0.043614162669332705
2.612,-0.09003120002291239
2.616,-0.07447890365296705
2.62,-0.06627818416039341
2.624,0.0015739731950950853
2.628,-0.05988345944632336
2.632,-0.009896221974466955
2.636,-0.10574587097285283
2.64,0.06693488044359582
2.644,-0.06604260085736635
2.648,0.05932887718592235
2.652,-0.00839367406423908
2.656,0.001579982556434826
2.66,-0.07030138495753775
2.664,-0.046206441581017964
2.668,-0.061616806096306265
2.672,0.004705364463034819
2.676,-0.007342920415724159
2.68,-0.13925393646251796
2.684,-0.05722538139300651
2.688,0.07616631066353999
2.692,-0.08523890980564008
2.696,-0.08625811336585058
2.7,-0.022019021513835935
2.704,-0.04666241249023098
2.708,-0.1331221035031645
2.712,-0.1139452229813188
2.716,-0.12401399290751973
2.72,-0.05929192841766864
2.724,-0.01068706760935905
2.728,0.07970285772858948
2.732,0.278892616045676
2.736,0.5298756010286225
2.74,0.8522917882848109
2.744,0.8544712571696749
2.748,0.9592916062508173
2.7520000000000002,0.7443685155433709
2.7560000000000002,0.5155073054820718
2.7600000000000002,0.28779354889542164
2.7640000000000002,-0.03845069928413244
2.7680000000000002,-0.24999418880652086
2.7720000000000002,-0.24150562606501894
2.7760000000000002,-0.19058338532906421
2.7800000000000002,-0.32133218377788103
2.7840000000000003,-0.22801273728874494
2.7880000000000003,-0.10214286682508356
2.7920000000000003,-0.08897891522275642
2.7960000000000003,-0.07463150671773507
2.8000000000000003,-0.11710000220911448
2.8040000000000003,-0.010889394960138066
2.8080000000000003,-0.06306498495915332
2.8120000000000003,-0.18921452152283788
2.816,-0.14134940115114486
2.82,-0.05917351753918057
2.824,-0.0463100451770301
2.828,-0.08816997151408129
2.832,-0.1346054774055646
2.836,-0.038386935076527046
2.84,0.04827462341024098
2.844,-0.07142347051757741
2.848,-8.710791523657002e-05
2.852,-0.05889346672492089
2.856,-0.08162144186066812
2.86,-0.10689352673734025
2.864,-0.07169528653358795
2.868,-0.10806774593757382
2.872,-0.028149536596730022
2.876,0.05270660676493266
2.88,-0.16603651186575774
2.884,-0.03053082815771078
2.888,0.03793049752014852
2.892,-0.00029150434412517773
2.896,-0.13405254026570637
2.9,-0.03944328240606686
2.904,-0.02821038297654013
2.908,-0.05732362292256475
2.912,-0.018730507172992922
2.916,-0.06337791732307746
2.92,-0.020668039878974503
2.924,-0.09573294294206666
2.928,-0.04340900540064681
2.932,0.01929966879560155
2.936,0.0956427354534738
2.94,0.004188778535394878
2.944,-0.0006315884168624913
2.948,0.04806479851126375
2.952,-0.02513997554022128
2.956,0.05734474600853472
2.96,0.04094226671386305
2.964,0.045243746407702935
2.968,0.1356164853561142
2.972,0.09591727269410791
2.976,0.15432459077178606
2.98,0.10963834906947605
2.984,0.1544936950869779
2.988,0.18361943554441348
2.992,0.09016382635355734
2.996,0.18685294052860452
3.0,0.19230632629940475
3.004,0.18172007013437494
3.008,0.18523634058896396
3.012,0.2045023922808485
3.016,0.18834499891988993
3.02,0.23468461235716942
3.024,0.15883618535709518
3.028,0.2170058366206638
3.032,0.06414979607768788
3.036,0.12370446786444653
3.04,0.13842597620916877
3.044,0.0994729614002433
3.048,0.09330128541734317
3.052,-0.005871185087964845
3.056,0.03945165150506716
3.06,0.1536199062448595
3.064,0.06224608205754382
3.068,0.06705362099241308
3.072,0.0406742567360285
3.076,-0.03644321186246358
3.08,-0.008296296069722198
3.084,-0.053169938307293274
3.088,-0.061585342763865056
3.092,-0.036998830908415645
3.096,-0.07556743226630586
3.1,-0.11058595282736833
3.104,-0.045525957221847914
3.108,-0.0919916552139397
3.112,-0.09641872504887422
3.116,-0.031020380333246063
3.12,-0.07033394227309864
3.124,-0.10283619157219032
3.128,-0.011480105812658445
3.132,-0.15113223369360346
3.136,-0.039733314887892654
3.14,-0.03931126834266592
3.144,-0.15270986981116627
3.148,-0.017263637571321613
3.152,-0.08808560233922713
3.156,-0.04011741175913028
3.16,-0.11454913746827555
3.164,-0.13859496982754466
3.168,-0.08590654168977063
3.172,-0.08588019099466548
3.176,-0.06157862466577173
3.18,-0.052850359933042566
3.184,-0.07242462384011376
3.188,0.022246042921773623
3.192,-0.03297233204499119
3.196,-0.08839256646214377
3.2,-0.12488197589674173
3.204,-0.005123028133795546
3.208,0.05406750163881717
3.212,-0.05543990499922527
3.216,-0.01982773651476326
3.22,-0.059376051841380194
3.224,-0.10012529180977724
3.228,0.013030128419025767
3.232,-0.021956148398132428
3.236,0.012545295699453236
3.24,-0.024776025306968617
3.244,-0.059674599161371675
3.248,-0.10604283057008218
3.2520000000000002,0.07578634343479296
3.2560000000000002,-0.07597483540080893
3.2600000000000002,0.04003864132177301
3.2640000000000002,0.011776205375356105
3.2680000000000002,-0.012316102812640402
3.2720000000000002,0.008971275689434892
3.2760000000000002,-0.062269639361331224
3.2800000000000002,-0.0906044072131455
3.2840000000000003,-0.05188875313863893
3.2880000000000003,-0.11631089077160739
3.2920000000000003,-0.05667369111592875
3.2960000000000003,0.032424207109049405
3.3000000000000003,-0.08385100060746105
3.3040000000000003,-0.0985750600608154
3.3080000000000003,-0.16306311927472383
3.3120000000000003,0.00665309606633234
3.3160000000000003,-0.12205642454912444
3.3200000000000003,-0.05163698224499246
3.3240000000000003,0.013288736954122846
3.3280000000000003,-0.09102930142733788
3.332,-0.08582218576380808
3.336,-0.12795688412018996
3.34,-0.1026240545046006
3.344,-0.09318402942038552
3.348,-0.11829177389946179
3.352,-0.06894650547931737
3.356,-0.11695855060505272
3.36,0.008521169678615576
3.364,-0.1049358509435403
3.368,-0.08353932384852882
3.372,-0.07027604675682336
3.376,-0.06090483911235873
3.38,-0.18326161827847964
3.384,-0.01774536254128735
3.388,-0.15253305185250443
3.392,-0.22806491749384672
3.396,-0.18709350268072894
3.4,-0.11402277986476801
3.404,0.02515655327132485
3.408,0.07154704075538783
3.412,0.12570782527654698
3.416,0.46377132675780475
3.42,0.7188916387628367
3.424,0.809051466605537
3.428,0.8881372712634833
3.432,0.7600139649692738
3.436,0.6143396679158903
3.44,0.29580190742239393
3.444,0.024557276921127413
3.448,-0.1491988409445157
3.452,-0.19758491523397342
3.456,-0.3048938119166803
3.46,-0.22946123161894375
3.464,-0.14729459653236165
3.468,-0.18059438613364323
3.472,-0.16627714987441777
3.476,-0.05991993093993165
3.48,-0.017918465425373148
3.484,-0.05114003776392287
3.488,-0.09467949159770966
3.492,-0.032707182783561085
3.496,-0.11750612393538548
3.5,-0.11406940176269909
3.504,-0.047828488249510165
3.508,-0.06370525121113585
3.512,-0.09730165307382792
3.516,-0.03579321032476319
3.52,-0.07399208666779518
3.524,-0.09880097801751672
3.528,-0.16450023807136066
3.532,-0.12987854581225222
3.536,-0.017703318353639856
3.54,0.03105801362937119
3.544,-0.07368902391050307
3.548,-0.07161927724615948
3.552,-0.06759967184366888
3.556,-0.06790292929265955
3.56,-0.11906321204042247
3.564,-0.04865615027173373
3.568,-0.025272881560501212
3.572,-0.09161884947521193
3.576,-0.06771245043055005
3.58,-0.02506464908037722
3.584,-0.11476960126393754
3.588,-0.07837306946143632
3.592,-0.08123798224793867
3.596,0.013665449604582158
3.6,-0.025634997033149497
3.604,0.01073284571068044
3.608,-0.038860123859462956
3.612,-0.022757610997935614
3.616,-0.013718574993210983
3.62,0.04682582450706274
3.624,-0.026177401212991627
3.628,0.032169360307777714
3.632,-0.05294589415141328
3.636,-0.01997356342536173
3.64,0.08838917818219594
3.644,0.06235423848268937
3.648,0.0736021161623295
3.652,0.1476190175602054
3.656,0.12978241091511653
3.66,0.14569074102425877
3.664,0.05087952928341509
3.668,0.14554431028993414
3.672,0.21776909747847384
3.676,0.158122493754273
3.68,0.1869477731666071
3.684,0.22851821593601682
3.688,0.2316939054975506
3.692,0.20573046575533227
3.696,0.14636385019243092
3.7,0.14410675677607837
3.704,0.2395393974222999
3.708,0.1461994808462401
3.712,0.096726517807335
3.716,0.1246393683656896
3.72,0.21366451019390262
3.724,0.10703509361759048
3.728,0.04620709713723041
3.732,0.09318930866922212
3.736,0.02056236089621767
3.74,0.030231875214776268
3.744,0.017379075626031405
3.748,0.09380768415875958
3.7520000000000002,0.014888689460964425
3.7560000000000002,-0.05603056170346367
3.7600000000000002,0.03371381515321781
3.7640000000000002,-0.0016559369229837521
3.7680000000000002,-0.0410181825438067
3.7720000000000002,-0.04780891824784026
3.7760000000000002,0.04059524995120877
3.7800000000000002,-0.09524662468767438
3.7840000000000003,-0.056811029095436144
3.7880000000000003,0.06262493755090634
3.7920000000000003,-0.06685774217962677
3.7960000000000003,-0.1131389703710477
3.8000000000000003,-0.13700059722494845
3.8040000000000003,-0.07129002597708597
3.8080000000000003,-0.04236078493509506
3.8120000000000003,-0.1074368360495891
3.8160000000000003,0.02319316575970845
3.8200000000000003,-0.03826837112587846
3.8240000000000003,-0.01698478497793285
3.8280000000000003,-0.12383673047289767
3.8320000000000003,-0.12210915219145854
3.8360000000000003,-0.041320910472252365
3.84,-0.15425812173971176
3.844,-0.06395450293244148
3.848,-0.05170447661498093
3.852,-0.004132061903679256
3.856,-0.08374842662148185
3.86,-0.13892174334765647
3.864,-0.12606262484155578
3.868,-0.0615949753312381
3.872,0.018860299483498766
3.876,-0.09953416362188072
3.88,-0.05961810075697398
3.884,-0.057751615771484716
3.888,0.024136985055148493
3.892,-0.02365696205471967
3.896,-0.08599937612131366
3.9,-0.03862314583438822
3.904,-0.04815803301262412
3.908,-0.040240730518908904
3.912,0.017711188623166983
3.916,-0.0570648409129966
3.92,0.05643780431064925
3.924,0.025794463523829227
3.928,0.07578381001088397
3.932,-0.020135690182791634
3.936,0.02750862432191789
3.94,-0.02325622929428374
3.944,-0.026518115558112256
3.948,0.007383199389747696
3.952,-0.02157312617413166
3.956,-0.05766428359170022
3.96,-0.04339386544258477
3.964,-0.13113716741862766
3.968,-0.042061842267585574
3.972,-0.016290972431220678
3.976,0.042166528736378314
3.98,0.0349491305939459
3.984,-0.12486531640246898
3.988,0.0487761035585171
3.992,-0.101713439964979
3.996,-0.12612540229431887
4.0,-0.11590918353246116
4.0040000000000004,-0.054838849816644254
4.008,-0.10696716296152342
4.0120000000000005,-0.13037546654009807
4.016,-0.02141437325019664
4.0200000000000005,-0.07297959586373907
4.024,0.03118457205483529
4.0280000000000005,-0.05087362232006207
4.032,-0.10265386351459813
4.0360000000000005,0.03342855156785176
4.04,-0.09673116095572082
4.0440000000000005,0.007216103450252032
4.048,-0.11622678737645922
4.0520000000000005,0.02759600685198582
4.056,0.03997364318522086
4.0600000000000005,-0.04402578756168013
4.064,-0.1619917081347828
4.0680000000000005,-0.056589150103894426
4.072,-0.07755068659914488
4.0760000000000005,-0.18773216572986828
4.08,-0.1753073380928652
4.0840000000000005,-0.2318405654709677
4.088,0.012222573664536475
4.0920000000000005,0.06585968463268457
4.096,0.3811341923671635
4.1,0.6306577523640449
4.104,0.7905130703356199
4.108,0.9241086518664517
4.112,0.917482643561982
4.116,0.7050039194981811
4.12,0.511432098305992
4.124,0.1660151244026188
4.128,-0.007814058341148854
4.132,-0.1540279036287845
4.136,-0.21458254099159307
4.14,-0.16900147853731437
4.144,-0.2217364198186087
4.148,-0.21933237308808887
4.152,-0.11443791628515314
4.156,-0.0521034930651018
4.16,-0.09564947746800069
4.164,-0.03872271272683395
4.168,-0.05284128736871804
4.172,-0.031148544639131068
4.176,-0.1294127308391861
4.18,0.012356238834976038
4.184,0.01182066593056108
4.188,-0.07620591670682533
4.192,0.004875475512960012
4.196,-0.0603449193483871
4.2,-0.05829877071948583
4.204,-0.08557688761415777
4.208,0.032408270363891406
4.212,-0.03030129361399713
4.216,0.0003655836350380942
4.22,-0.05764898845613402
4.224,0.010653751472925306
4.228,-0.0849336000281905
4.232,-0.12684531371892907
4.236,-0.07130336630847145
4.24,-0.0158186320764555
4.244,0.036774268901593604
4.248,0.0004969072437185154
4.252,0.010685808173182577
4.256,0.005583375152379959
4.26,-0.024578183753892834
4.264,-0.04870537559391283
4.268,-0.010585266368605795
4.272,0.0021793713179038415
4.276,0.04192901306734828
4.28,0.07124611973636413
4.284,0.019504234051229294
4.288,-0.013435551610555277
4.292,0.0005039960480639795
4.296,-0.015574350400784531
4.3,0.012878864788039894
4.304,0.08415836971316076
4.308,0.10210489671599958
4.312,0.007718144839104504
4.316,0.08560073076920302
4.32,0.1967372859358359
4.324,0.16387529522704666
4.328,0.16463538791004406
4.332,0.08704009639769453
4.336,0.12232072778051262
4.34,0.21954399627906715
4.344,0.20003064632375905
4.348,0.16670395962214124
4.352,0.13887886868608507
4.356,0.1858882188793514
4.36,0.10787766478286474
4.364,0.19942199994216875
4.368,0.24477869166227226
4.372,0.2627844369340686
4.376,0.18414248401444258
4.38,0.1413485072636015
4.384,0.17955596594417383
4.388,0.17147035342234435
4.392,0.10400647339192903
4.396,0.1743422867680968
4.4,0.26825171826233346
4.404,0.27356222373726613
4.408,0.12413518211397265
4.412,0.07313331080810095
4.416,0.13952580242614115
4.42,0.08680303804767134
4.424,0.07892042118253331
4.428,-0.0032747254157573513
4.432,0.07018183110562701
4.436,0.04061511929605541
4.44,0.02982552544475455
4.444,0.08667033066839307
4.448,-0.05934524728843793
4.452,0.0190605344557874
4.456,0.03842663493114431
4.46,0.043846867202143265
4.464,0.05400281927092883
4.468,0.02389824281807492
4.472,0.028469444682675055
4.476,-0.07311926433852449
4.48,-0.01391150593004741
4.484,0.012699190183135117
4.488,7.834040049830432e-05
4.492,-0.029506922302181188
4.496,-0.08065364140032265
4.5,-0.09854473270934204
4.5040000000000004,0.030977177905228224
4.508,0.08820821551012929
4.5120000000000005,-0.00962214674224162
4.516,0.01866898963034895
4.5200000000000005,0.011272799800498747
4.524,0.0003856630879494165
4.5280000000000005,-0.028641661448509548
4.532,-0.03845631043215307
4.5360000000000005,0.10202134463653367
4.54,-0.02194340894429845
4.5440000000000005,-0.08291264310222657
4.548,-0.05645155914754766
4.5520000000000005,-0.04320487108077403
4.556,0.05441098370735087
4.5600000000000005,0.020299889645457595
4.564,0.02690294680523348
4.5680000000000005,0.1269423480306708
4.572,0.01769014099568946
4.5760000000000005,0.12576933129729034
4.58,0.028072155314999587
4.5840000000000005,0.030496805882672656
4.588,0.14485099247689226
4.5920000000000005,-0.008269994388732688
4.596,0.055424091070863116
4.6000000000000005,0.13167786121504874
4.604,0.15576092763369004
4.6080000000000005,0.025351485876418195
4.612,0.1223438859148035
4.616,0.10193270931157192
4.62,0.03550222610643644
4.624,0.09069763189919003
4.628,0.06407543547377206
4.632,0.17676839522719828
4.636,0.08757195989510842
4.64,0.10029417926707199
4.644,0.0482028759901532
4.648,-0.008468985001293096
4.652,0.04777236508681609
4.656,-0.003734975163476574
4.66,-0.05999199796009829
4.664,0.035362585015991425
4.668,0.16508191169108288
4.672,0.07030241261008166
4.676,0.010771647148825461
4.68,-0.07031852967014032
4.684,-0.0013361873684008402
4.688,0.012982712833270429
4.692,0.04306146335026845
4.696,0.09294295924397845
4.7,0.0781792393730361
4.704,-0.007101557841332727
4.708,0.0551499742635871
4.712,-0.005593599977883237
4.716,0.003194029140927519
4.72,0.04557252778347522
4.724,0.015385491026696141
4.728,-0.007111884705429182
4.732,0.09164382701619632
4.736,0.05056068685945783
4.74,0.03364314236798251
4.744,-0.01776315430456394
4.748,0.00016326527841770957
4.752,-0.010914812040261151
4.756,0.008272617844133408
4.76,-0.03299599864768533
4.764,-0.0637481062594643
4.768,0.024636944550769296
4.772,0.11589598939369097
4.776,0.34067085595835644
4.78,0.5140760144351677
4.784,0.7904504158685473
4.788,0.9834847110063913
4.792,0.9578684437131282
4.796,0.8855724485497847
4.8,0.630660568493268
4.804,0.3868524051287225
4.808,0.15431338841160747
4.812,-0.08651744919793958
4.816,-0.07432947665737248
4.82,-0.16469767888991177
4.824,-0.21644761045101527
4.828,-0.057360264796105655
4.832,-0.04822373315920905
4.836,0.032721924329047324
4.84,-0.03520834094039142
4.844,0.036628838522707895
4.848,-0.0009173954864437686
4.852,0.08188093454465495
4.856,0.1338686179002229
4.86,-0.005223706783775161
4.864,0.07753088506670425
4.868,-0.057922621305653954
4.872,0.07242250950261969
4.876,0.013841438371436143
4.88,0.04782189823989344
4.884,0.08462649522079647
4.888,0.1121746028951299
4.892,-0.018400759139204095
4.896,-0.05069247799414989
4.9,0.003345082051939216
4.904,0.02463768643196621
4.908,0.028128440379873575
4.912,0.02272294290640072
4.916,-0.03354561501031273
4.92,0.13817521191123788
4.924,0.07205247028908374
4.928,-0.0036560756296265054
4.932,0.02623897360665207
4.936,0.041765879553543134
4.94,0.048563918834993974
4.944,-0.006173103274863645
4.948,0.013146209525356535
4.952,-0.028032913051627556
4.956,0.11866024172066154
4.96,-0.016911627257583772
4.964,0.11325405473975196
4.968,0.10112841812901793
4.972,0.09878094562116108
4.976,0.05369620626031631
4.98,0.04799021684855874
4.984,0.1793858352335298
4.988,0.09293193219900187
4.992,0.11142767300606307
4.996,0.018231290994635135
5.0,0.1375866257686998
5.0040000000000004,0.21968114611752396
5.008,0.2679645970775956
5.0120000000000005,0.2587131369856009
5.016,0.2794666391726925
5.0200000000000005,0.2501689781658491
5.024,0.1880827578086598
5.0280000000000005,0.2097113450237169
5.032,0.24180776381576669
5.0360000000000005,0.23498177189373298
5.04,0.2516017209804109
5.0440000000000005,0.26433620256894635
5.048,0.3112080316649907
5.0520000000000005,0.3432336376572556
5.056,0.2990042475361405
5.0600000000000005,0.2774732561519916
5.064,0.2118801379675289
5.0680000000000005,0.2815142768668178
5.072,0.3232729899598364
5.0760000000000005,0.23610831305862415
5.08,0.26982195634478723
5.0840000000000005,0.21902835260421855
5.088,0.30133403883857957
5.0920000000000005,0.11518380243378179
5.096,0.24200619305675844
5.1000000000000005,0.21665041950862335
5.104,0.1901370086063359
5.1080000000000005,0.1382362316220811
5.112,0.09826744534586329
5.1160000000000005,0.06305593714331358
5.12,0.1424971181606681
5.124,0.16738752063880694
5.128,0.09536602778482287
5.132,0.15593616536755783
5.136,0.08531930775631108
5.14,0.06915153825102005
5.144,0.07338801482791962
5.148,0.07226258579520138
5.152,0.14671140038439495
5.156,0.05088882464575753
5.16,0.1683373788786979
5.164,0.07449368732493322
5.168,0.05984739910564722
5.172,0.0902798762875485
5.176,-0.016688679291994413
5.18,0.12243620827078308
5.184,0.13308283466403464
5.188,0.08213486918699352
5.192,0.1420541828189306
5.196,0.004040831833342112
5.2,0.07411482344370972
5.204,0.007798635852766203
5.208,0.07362824086970433
5.212,0.07452870347568918
5.216,0.056421413318587604
5.22,0.1553303210668544
5.224,-0.012399733881357455
5.228,-0.0013869403345047673
5.232,0.09430445269444174
5.236,0.008872977969846096
5.24,0.1024629824600776
5.244,-0.01379572814168889
5.248,0.10859042174291642
5.252,0.14134621853410723
5.256,0.08399343119242834
5.26,0.05706555507175121
5.264,0.09234198310129313
5.268,0.09527314664182324
5.272,0.09740220511929815
5.276,0.10881561327670417
5.28,0.14050551682848283
5.284,0.1970657199670291
5.288,0.25537236455811163
5.292,0.1979627496159474
5.296,0.14324966693227742
5.3,0.19818651787534064
5.304,0.14472583979007217
5.308,0.21857863197497016
5.312,0.16136562963699358
5.316,0.09890606961964157
5.32,0.08667689759307842
5.324,0.027378469240214434
5.328,0.0017720831209035587
5.332,-0.01437456162749269
5.336,0.1047896504188092
5.34,0.046992701303925924
5.344,0.18857295934220167
5.348,0.08861232826644863
5.352,0.08474842739138953
5.356,0.03608783044611804
5.36,0.0447596004519223
5.364,0.16143490863647303
5.368,0.1325071564991855
5.372,0.05283063170830866
5.376,0.03993644527927273
5.38,-0.00836438238561154
5.384,0.010507569971233824
5.388,0.05042337212687584
5.392,0.04135223905971537
5.396,0.1284121596685934
5.4,0.02524138796754171
5.404,0.09260864037937122
5.408,0.07663061974490935
5.412,0.08533616375104418
5.416,0.08769646916151373
5.42,0.06816882646558643
5.424,0.10048996850879677
5.428,0.06440162331289295
5.432,0.0669344329461173
5.436,0.01597622288872956
5.44,0.04665152799300263
5.444,-0.1008012102216668
5.448,-0.00010556206177877309
5.452,0.1095594258590825
5.456,0.29143292658836706
5.46,0.35837370106214134
5.464,0.7840433080671595
5.468,0.8944856372076967
5.472,1.0908439648372699
5.476,0.9152872396600282
5.48,0.7922525029984614
5.484,0.6201747244144105
5.488,0.2963641303393087
5.492,0.07900112631434897
5.496,-0.06811472380773295
5.5,-0.10848878743826491
5.5040000000000004,-0.11897044203633571
5.508,-0.1213797896460825
5.5120000000000005,-0.060540821820569274
5.516,0.09469749073898595
5.5200000000000005,0.09313623386594143
5.524,0.09709404577657109
5.5280000000000005,0.013465589550031888
5.532,0.074689120973468
5.5360000000000005,0.10828145459805867
5.54,0.026500840608062133
5.5440000000000005,0.07377376198883771
5.548,0.09278657233896251
5.5520000000000005,0.057971695559073215
5.556,0.05581089186018202
5.5600000000000005,0.049909629855221474
5.564,0.061223153639059835
5.5680000000000005,0.06335153507965391
5.572,0.07889924930784631
5.5760000000000005,0.036930193353058985
5.58,0.11790114877741337
5.5840000000000005,0.08358583878376843
5.588,0.06932508861285047
5.5920000000000005,0.06808887693781596
5.596,0.05134481498862287
5.6000000000000005,0.037864583718978245
5.604,0.10305498250687975
5.6080000000000005,0.1560143828763029
5.612,0.1310938320904978
5.6160000000000005,0.15782735169460155
5.62,0.09679890986557624
5.6240000000000006,0.1239603342446149
5.628,0.05284137336039706
5.632,0.16048499198964483
5.636,0.12331832237239419
5.64,0.13942941686386395
5.644,0.10023798950765386
5.648,0.14813648042083563
5.652,0.10404819525037351
5.656,0.2268170902514945
5.66,0.08347467217444834
5.664,0.18130735478437088
5.668,0.15310805111121475
5.672,0.1666009263459134
5.676,0.14886000981074796
5.68,0.22946847084302557
5.684,0.2121368649058264
5.688,0.24146653966768114
5.692,0.3459225817404603
5.696,0.29469432092668324
5.7,0.39313628241195997
5.704,0.23149397795904494
5.708,0.28224138834187296
5.712,0.3342816271180182
5.716,0.3513045033587587
5.72,0.352784028990762
5.724,0.3257714199485721
5.728,0.2733057983049834
5.732,0.20617024043362306
5.736,0.3537427617001255
5.74,0.37235816934013477
5.744,0.3912385787785191
5.748,0.29673234596966297
5.752,0.37241040086043103
5.756,0.2780229628324229
5.76,0.34106230648349245
5.764,0.20979319818031014
5.768,0.289586279041548
5.772,0.290975382719374
5.776,0.2374081692266045
5.78,0.1971866709111148
5.784,0.19594798207674669
5.788,0.1968407348176648
5.792,0.19015118787607144
5.796,0.14734401496602847
5.8,0.1827438828679439
5.804,0.1338235159640111
5.808,0.08783196342507843
5.812,0.0968217950497143
5.816,0.05788499447624447
5.82,0.006309568841235125
5.824,0.11121217269219881
5.828,0.0853548070350578
5.832,0.16995543678221844
5.836,0.13773334980414742
5.84,0.08189514984619548
5.844,0.1061650490951569
5.848,0.029802140206305644
5.852,0.024559076379934958
5.856,0.09309116962690984
5.86,0.08296125805527343
5.864,0.010362898965904081
5.868,0.0732432371220326
5.872,0.06173426080694006
5.876,0.08285358320686197
5.88,0.03920686595212998
5.884,0.11714511981406295
5.888,0.057092288465094926
5.892,0.05276523643171843
5.896,0.052884197645442076
5.9,0.06644617195617769
5.904,0.06007475514120818
5.908,0.04898863231397337
5.912,0.03889954342041023
5.916,0.1059172961493812
5.92,0.03440181374025558
5.924,-0.003143133894396008
5.928,0.10172003481670602
5.932,0.13014476294633043
5.936,0.1477411010054526
5.94,0.0017000135086765594
5.944,0.03799407345289166
5.948,0.0775947820381418
5.952,0.08985312101264262
5.956,0.12476661875915752
5.96,0.16771443431503885
5.964,0.11957710500375747
5.968,0.14535046397274148
5.972,0.15952508112987296
5.976,0.1506612442586615
5.98,0.13392971779198046
5.984,0.15021874421667178
5.988,0.09482882444788501
5.992,0.07518410400954467
5.996,0.13072604348535188
6.0,0.1205343409071275
6.0040000000000004,0.1042890494246849
6.008,0.1137852425795617
6.0120000000000005,0.09927527873397436
6.016,-0.015274668678454312
6.0200000000000005,0.06691650842325528
6.024,0.06694545653241049
6.0280000000000005,0.047125348864581786
6.032,0.13053288475338032
6.0360000000000005,0.05422465224155408
6.04,0.05828442617822081
6.0440000000000005,0.0888797590130015
6.048,0.10646227800614652
6.0520000000000005,0.10907967438749948
6.056,0.019231267919454842
6.0600000000000005,0.10982568749830823
6.064,0.08210474560895807
6.0680000000000005,0.09051655244363323
6.072,-0.1203740536325318
6.0760000000000005,0.01909009954590074
6.08,0.029450444409154918
6.0840000000000005,-0.003092701437233017
6.088,0.06041855740798038
6.0920000000000005,0.027367630588094327
6.096,0.08124440341622205
6.1000000000000005,0.07104275079444522
6.104,0.0913481733135114
6.1080000000000005,0.13820981181139586
6.112,0.05387719059089331
6.1160000000000005,-0.0938543038257916
6.12,0.06342764549417763
6.1240000000000006,0.05819805272748503
6.128,-0.07703465893699463
6.132000000000001,0.024627627851976044
6.136,0.1438190765310903
6.140000000000001,0.3164656126820294
6.144,0.47138136342162695
6.148,0.8798637226690514
6.152,1.125845905851695
6.156,1.0798295532426667
6.16,0.9384069517778179
6.164,0.6607767522508023
6.168,0.425833211668797
6.172,0.2612823918658077
6.176,0.05377918923097119
6.18,-0.08553594911564676
6.184,-0.1041454928118064
6.188,-0.07087468777755254
6.192,-0.0403933729585229
6.196,-0.10889831040038186
6.2,0.0045425766134504966
6.204,0.1622482958032451
6.208,0.057473994788898405
6.212,0.08421883955028492
6.216,0.03481766934719746
6.22,0.05091109110896495
6.224,0.09632606207165047
6.228,0.006376504195746369
6.232,0.08069015990957686
6.236,0.11762827600980488
6.24,0.05669348931701699
6.244,0.07334214367482841
6.248,0.05453712087534945
6.252,0.19293818823539888
6.256,0.04234991165006398
6.26,0.03744399923577267
6.264,-0.07061128608060821
6.268,0.022079398386624496
6.272,0.11341086885041468
6.276,0.04091889298798185
6.28,0.047181816864550544
6.284,-0.016319558078973978
6.288,0.11393821106922908
6.292,0.05205277641111422
6.296,-0.011885255720616626
6.3,0.04535579455611427
6.304,0.1299391132996538
6.308,0.04671568529505056
6.312,0.026457600450320085
6.316,0.06893775087529838
6.32,0.06387672513826118
6.324,0.046108722501311754
6.328,0.12593149134188283
6.332,0.09464370742907635
6.336,0.128538039234225
6.34,0.1275957749932758
6.344,0.028964843856792016
6.348,0.10133491853085763
6.352,0.07499077436932655
6.356,0.08644109880602618
6.36,0.1866991931057549
6.364,0.15324860344401833
6.368,0.16046078227834595
6.372,0.23052263584740937
6.376,0.24068980508549792
6.38,0.24939268605010917
6.384,0.2654070565012536
6.388,0.19082055579438612
6.392,0.2189154313857132
6.396,0.19601512373586044
6.4,0.34197687728655335
6.404,0.3725972647754679
6.408,0.33091952556416593
6.412,0.2753344253423855
6.416,0.2649603102756799
6.42,0.3105040333518284
6.424,0.33673653923208874
6.428,0.304298712029897
6.432,0.1844880755633594
6.436,0.1977695950144832
6.44,0.15580669624252308
6.444,0.21335606475159016
6.448,0.19813770116905896
6.452,0.2599718291435626
6.456,0.22916161479286823
6.46,0.2023863229973447
6.464,0.08825006570427052
6.468,0.16608478415652927
6.472,0.1697945796815673
6.476,0.10323212930599768
6.48,0.11176350284029016
6.484,0.11445234369295591
6.488,0.12908637848906526
6.492,0.04707263808132426
6.496,0.141090568242083
6.5,0.14529161468363577
6.5040000000000004,0.16496232287371762
6.508,0.07885343509369652
6.5120000000000005,0.011347855065484344
6.516,0.10912782488271801
6.5200000000000005,0.1703280004677512
6.524,-0.015673417876126368
6.5280000000000005,-0.04093112216976172
6.532,0.011165529998856404
6.5360000000000005,0.14010461344123043
6.54,0.10251798025634273
6.5440000000000005,0.037417705111013874
6.548,-0.026175356475526077
6.5520000000000005,-0.0058191732382566405
6.556,0.037795563547718104
6.5600000000000005,-0.00028726649722821823
6.564,0.010640191259901385
6.5680000000000005,-0.007206186658950807
6.572,0.19772520487710454
6.5760000000000005,0.1166215222578566
6.58,0.07278813913273004
6.5840000000000005,-0.017704195528221254
6.588,-0.04193341075948304
6.5920000000000005,-0.013618301451834122
6.596,-0.01844729175366097
6.6000000000000005,0.03046124350555392
6.604,0.06063484743024877
6.6080000000000005,0.043965589853613846
6.612,-0.018948523796894864
6.6160000000000005,0.01671881050937265
6.62,0.02361857647782216
6.6240000000000006,0.00595099751712197
6.628,0.00824329181591222
6.632000000000001,-0.026874980871571377
6.636,0.0688586487626669
6.640000000000001,0.040623951869625974
6.644,0.08853618475926936
6.648000000000001,0.09846348864849115
6.652,0.08949291238784819
6.656000000000001,0.12561445360742862
6.66,0.1197384609526786
6.664,-0.01823580635456333
6.668,0.02516547463713055
6.672,0.13979317485454662
6.676,0.07813293525401521
6.68,-0.009869829099530263
6.684,0.09544468768061493
6.688,0.068617490764172
6.692,-0.050579147898089746
6.696,0.04995679256480866
6.7,0.09024950738121933
6.704,0.07964610689169166
6.708,0.018056826375144396
6.712,-0.007827881909690223
6.716,0.01430036985391634
6.72,-0.04370231653342192
6.724,0.08882769797708774
6.728,0.032078341157691544
6.732,-0.01629568055507352
6.736,0.012023299161739736
6.74,0.020872536499626324
6.744,-0.0344501244801272
6.748,0.07531287424179153
6.752,0.02177775983075707
6.756,0.01772888968040888
6.76,0.0032739949896227524
6.764,0.03520269279768927
6.768,0.05103085922860121
6.772,0.11621088472813312
6.776,-0.017501289063757086
6.78,-0.04388677224244076
6.784,0.01777787825649279
6.788,-0.03231902385882551
6.792,-0.043469778545226156
6.796,-0.010359618717859474
6.8,0.024905882073520583
6.804,-0.04071952499383114
6.808,-0.036597424940645204
6.812,-0.1721061882019077
6.816,0.03169634573448169
6.82,0.24410976206520046
6.824,0.45541426019044545
6.828,0.6258118228693349
6.832,0.8461088771804721
6.836,0.961868233888153
6.84,0.9383107373871424
6.844,0.7906824406788265
6.848,0.4237878624253915
6.852,0.14499182302079244
6.856,0.04239812995348656
6.86,-0.11368060457457829
6.864,-0.08455762153333274
6.868,-0.14706649444138928
6.872,-0.10008012561829877
6.876,-0.07499429166556676
6.88,-0.06620558755449621
6.884,-0.06904070690673755
6.888,0.07902999426926677
6.892,-0.09219087192328407
6.896,0.03867955851876054
6.9,-0.02281972476987037
6.904,0.002797306300330461
6.908,-0.09214801368000548
6.912,-0.013826603096619218
6.916,-0.024178542267613706
6.92,0.026790651523025035
6.924,-0.051867989496795504
6.928,-0.05719449151966589
6.932,-0.04617095142032629
6.936,-0.02442721430544306
6.94,-0.03180531882453525
6.944,-0.05939840142107787
6.948,-0.003687703013677244
6.952,-0.0622515515034046
6.956,-0.11114394943106512
6.96,0.02768392616031574
6.964,-0.15401855863843775
6.968,0.0026268660678378467
6.972,0.024484794044339227
6.976,-0.05860348757306165
6.98,0.08414019074095867
6.984,-0.04966257752826644
6.988,0.011660455651862004
6.992,0.0802898180802746
6.996,-0.13094570655740503
7.0,0.04340329505925
7.0040000000000004,0.043911880952792415
7.008,0.09958399611934954
7.0120000000000005,-0.08025104765905088
7.016,0.011036385629550012
7.0200000000000005,0.06434246621952222
7.024,0.03121720155648109
7.0280000000000005,-0.06017725237722622
7.032,0.07922927998689928
7.0360000000000005,0.11562360685193854
7.04,0.034217842921361624
7.0440000000000005,0.07513943958178886
7.048,0.06486490473204153
7.0520000000000005,0.12156166736308723
7.056,0.15089507189211718
7.0600000000000005,0.2043813586374784
7.064,0.18823610094088827
7.0680000000000005,0.20859091144767292
7.072,0.17557138919610837
7.0760000000000005,0.20574247300039594
7.08,0.16159329192516914
7.0840000000000005,0.19226562617997706
7.088,0.1922589519750965
7.0920000000000005,0.163042714118783
7.096,0.1984978944727103
7.1000000000000005,0.16267087877812458
7.104,0.2165696599278561
7.1080000000000005,0.1558504346278477
7.112,0.21458274091471607
7.1160000000000005,0.16467773249752918
7.12,0.2447715710397996
7.1240000000000006,0.1688615547623283
7.128,0.12072506591470678
7.132000000000001,0.05606671260575845
7.136,0.17698010391936198
7.140000000000001,0.15096823031088238
7.144,0.18961502686604348
7.148000000000001,0.029338600162857234
7.152,0.05241606559948443
7.156000000000001,0.021235094207977853
7.16,0.04244896920860764
7.164000000000001,0.0829345877722377
7.168,0.023410851452664857
7.172,0.07658343078700482
7.176,-0.03252355820519126
7.18,-0.049701473021966563
7.184,0.018984294111102043
7.188,0.050511164620307185
7.192,-0.006844934922437554
7.196,-0.12768307199239015
7.2,0.002740638114876442
7.204,-0.04330558318139586
7.208,-0.10874890988700053
7.212,-0.045295661964098254
7.216,-0.004503161501041672
7.22,-0.08268955793557374
7.224,-0.03166547911466406
7.228,-0.0036016814658941104
7.232,-0.011738049738585367
7.236,-0.10441827016507849
7.24,-0.006275826198955718
7.244,-0.060117778529146806
7.248,-0.006308302166413204
7.252,-0.02819869524419609
7.256,0.026218511023705128
7.26,-0.011281735474538604
7.264,-0.04101251510887344
7.268,-0.08229426754568164
7.272,-0.07950561329735713
7.276,-0.01502522668747449
7.28,-0.09949661898794328
7.284,-0.11404260181551928
7.288,-0.02843052347192808
7.292,0.04084383166135354
7.296,-0.12065662288541693
7.3,-0.011437077031401186
7.304,0.009867756241319726
7.308,0.023461775017480112
7.312,-0.008492747749537236
7.316,0.00038230920277748854
7.32,0.02370145033333194
7.324,0.03619677479296354
7.328,0.020547533101838086
7.332,0.021331675502428885
7.336,-0.03426261406613764
7.34,0.02070165145332098
7.344,0.0648805657401561
7.348,-0.06482187665542434
7.352,0.014940462517277642
7.356,-0.0032109874279426555
7.36,0.018122630992733813
7.364,-0.005706026419883194
7.368,-0.04621438647664855
7.372,-0.0028591941442213343
7.376,-0.0021899202442615326
7.38,-0.10678448291061786
7.384,-0.044687350764731064
7.388,0.08324890301417433
7.392,-0.06352621798429167
7.396,-0.007699848969490226
7.4,-0.06680398144588817
7.404,0.010498621701752135
7.408,-0.016422623862217323
7.412,-0.11565526259631427
7.416,0.017134498334314678
7.42,-0.0696924662660131
7.424,-0.07246531811217474
7.428,-0.14833961302880427
7.432,-0.13624148359899652
7.436,-0.034883726971897025
7.44,-0.08303778110785559
7.444,-0.035312035016197806
7.448,-0.11367051431579503
7.452,-0.10169778370853745
7.456,-0.12134724826318277
7.46,-0.06074061004624555
7.464,-0.10654417514047007
7.468,-0.039675886359718915
7.472,-0.06187075526672425
7.476,-0.04439600703587552
7.48,-0.08505592503062381
7.484,-0.15749395300152602
7.488,-0.13117424333012975
7.492,-0.0891546963548048
7.496,-0.07978760567476764
7.5,0.17481891030657903
7.5040000000000004,0.32272058736373216
7.508,0.5014528208564722
7.5120000000000005,0.7161593501419656
7.516,0.8977091307249941
7.5200000000000005,0.9713954830872142
7.524,0.7611915010478287
7.5280000000000005,0.4341521991273407
7.532,0.23592861851285774
7.5360000000000005,-0.06416546076822986
7.54,-0.12203412969608732
7.5440000000000005,-0.20880177756097734
7.548,-0.15228950141156222
7.5520000000000005,-0.26334386653153147
7.556,-0.23548670347017653
7.5600000000000005,-0.26976238846419776
7.564,-0.05991157521828515
7.5680000000000005,-0.12106697354450144
7.572,-0.029568527741593215
7.5760000000000005,-0.07658965603839256
7.58,-0.00010506938791869647
7.5840000000000005,-0.21067831870450887
7.588,-0.021978677650008827
7.5920000000000005,0.036690931650692094
7.596,-0.054659851589177216
7.6000000000000005,-0.015582417070074246
7.604,0.005750824330640905
7.6080000000000005,-0.08868333299551312
7.612,-0.033268471248996706
7.6160000000000005,0.008658281677455554
7.62,0.06016253819824297
7.6240000000000006,-0.11675906953364107
7.628,-0.12329004300113314
7.632000000000001,-0.10619556556173364
7.636,0.016508913867471088
7.640000000000001,-0.12063005742419601
7.644,0.0006970977673480816
7.648000000000001,-0.011347776439587454
7.652,-0.014514870718733149
7.656000000000001,-0.049999780969547256
7.66,-0.13247059014144397
7.664000000000001,-0.12015195862574045
7.668,0.04010241527551599
7.672000000000001,-0.07778196571147929
7.676,-0.09614833118802696
7.68,-0.09979445242885643
7.684,-0.055820721928250765
7.688,-0.09925247244978311
7.692,-0.03638675554782347
7.696,-0.032713298518113505
7.7,-0.05129972701231862
7.704,0.10629283078745679
7.708,-0.0026704190393834065
7.712,-0.05805891340552476
7.716,-0.00032498013017529664
7.72,0.08870537734534766
7.724,0.017060379240977495
7.728,0.03861994531659306
7.732,0.12514950356588003
7.736,0.09539057907619738
7.74,0.049786582787997725
7.744,0.1466721373652337
7.748,0.11572383764365902
7.752,0.08696684341604849
7.756,0.16812403940680531
7.76,0.10405259090462349
7.764,0.05200980796833049
7.768,0.09203702901671862
7.772,0.17665410799182704
7.776,0.147428205335377
7.78,0.1624923407381036
7.784,0.25503092644700237
7.788,0.2146086130009746
7.792,0.14648739522271195
7.796,0.14613381551869795
7.8,0.1175122218118329
7.804,0.11659131177916478
7.808,0.03602292624187242
7.812,0.08430881561914905
7.816,0.06047853631700066
7.82,0.16374979892566893
7.824,0.10870381394684223
7.828,0.0790016136873942
7.832,0.08233966284443366
7.836,0.04397258290994231
7.84,-0.044265478888465735
7.844,-0.007764313333046042
7.848,-0.0010326992579722284
7.852,0.015062646389809316
7.856,-0.03369619715230833
7.86,-0.08969519890387605
7.864,-0.0032756118623636227
7.868,-0.02254490748381171
7.872,-0.0810161019793284
7.876,-0.0716403030222202
7.88,-0.1333050330305282
7.884,-0.03237135455488166
7.888,-0.044865521610004906
7.892,-0.019118999886991547
7.896,-0.1510020126438017
7.9,0.0171237809044964
7.904,-0.1386295268193906
7.908,-0.11228464384479123
7.912,-0.0917276212779734
7.916,-0.09309658549949865
7.92,-0.041462483712974015
7.924,-0.05725268959228434
7.928,-0.16650991570939416
7.932,-0.08605653250869101
7.936,-0.0007875585930479934
7.94,0.0034533099043486115
7.944,-0.0971564346045803
7.948,-0.1511199847091536
7.952,-0.09533091754917461
7.956,-0.05390256509671639
7.96,-0.08296483755454186
7.964,-0.043031812457605484
7.968,-0.05056629362573668
7.972,-0.09869560624779511
7.976,-0.1282941445689536
7.98,-0.09303113538858548
7.984,-0.09000397246460494
7.988,-0.03182615776402961
7.992,-0.09468965442064148
7.996,-0.027822209357498857
8.0,0.0034557799594081597
8.004,-0.020968198554361554
8.008000000000001,-0.0024466201672752094
8.012,0.02866031289403849
8.016,-0.030264398303615242
8.02,0.044741907840748954
8.024000000000001,-0.10682080849058312
8.028,-0.007902292959783454
8.032,-0.007184263947696851
8.036,-0.05969782671304139
8.040000000000001,0.07290190067007182
8.044,-0.061051244945569696
8.048,0.02612347138836523
8.052,-0.07056181397808595
8.056000000000001,-0.06276572921134127
8.06,-0.0479939574650832
8.064,-0.021778605070981068
8.068,-0.11304715765954135
8.072000000000001,-0.018114750150724113
8.076,-0.10116485990840755
8.08,-0.09625563577157578
8.084,-0.16496375843270444
8.088000000000001,-0.1382902343347372
8.092,-0.06421657893106358
8.096,-0.06678495540236032
8.1,-0.20738125722792938
8.104000000000001,-0.027399094089913
8.108,-0.10187830269930326
8.112,-0.22100717528024166
8.116,-0.1624162522266082
8.120000000000001,0.014990555016716256
8.124,-0.06686644244114238
8.128,-0.15623532042752264
8.132,-0.08515556870395431
8.136000000000001,-0.07363838855861879
8.14,-0.11640767416827594
8.144,-0.13620913784339575
8.148,-0.13013754387113124
8.152000000000001,-0.09327464964847566
8.156,-0.07416599476758257
8.16,-0.07139524479964347
8.164,-0.21692601391269145
8.168000000000001,-0.11473185449614229
8.172,-0.1460959322881258
8.176,-0.11860351230744327
8.18,0.001898124670054277
8.184000000000001,0.09581870672615697
8.188,0.3289923110664953
8.192,0.632921028172861
8.196,0.8102590078489461
8.2,1.0167440304984714
8.204,0.726004237452007
8.208,0.6157107047735602
8.212,0.31857666688005365
8.216,0.07917298500283104
8.22,-0.12414639054950911
8.224,-0.2189159140021141
8.228,-0.19014217349887336
8.232,-0.32467447671805527
8.236,-0.23755709827522697
8.24,-0.20860437410258845
8.244,-0.07915484740789971
8.248,-0.09685810988599537
8.252,-0.08268942395266926
8.256,-0.029148090334942887
8.26,-0.05654849570719282
8.264,-0.07979198161512963
8.268,-0.05253416061628321
8.272,-0.20824800452348127
8.276,-0.15707689599895897
8.28,-0.1107216331335459
8.284,-0.10280196420182175
8.288,-0.10058287582274963
8.292,-0.052164188112958504
8.296,-0.015992879682391506
8.3,-0.03292763927461834
8.304,-0.008637474874973551
8.308,0.015014582590755901
8.312,-0.1071281502978903
8.316,-0.0974627883063569
8.32,-0.07905167159826096
8.324,-0.035685560597608114
8.328,-0.09333242880180921
8.332,-0.07897587474696734
8.336,-0.03443435464387569
8.34,-0.10631156301431688
8.344,-0.14123661309965335
8.348,-0.08997562253017334
8.352,-0.09789770147516896
8.356,-0.11385938931123646
8.36,-0.02734756208946149
8.364,-0.0850521251022063
8.368,-0.06474160466437973
8.372,-0.021235049480887308
8.376,0.01523628769782559
8.38,-0.03497966973918665
8.384,0.0048580476930918
8.388,0.054643135066876014
8.392,0.11158221893302436
8.396,0.012438249990445538
8.4,0.034431605869669105
8.404,0.07612093271061386
8.408,0.08845559897369304
8.412,0.10085378983822291
8.416,0.161913092581422
8.42,0.09207336589352086
8.424,0.09589050132772507
8.428,0.07028503870449196
8.432,0.13041968132758058
8.436,0.186912660740561
8.44,0.15296473510083616
8.444,0.1262490013749222
8.448,0.24524226795720802
8.452,0.2972706941147139
8.456,0.17608111637183319
8.46,0.19761493826611343
8.464,0.19349460788363476
8.468,0.25394427789065754
8.472,0.2037855983731524
8.476,0.05911770444100757
8.48,0.14416422973284423
8.484,0.11315144531144146
8.488,-0.0013406591480494279
8.492,0.11496204608593043
8.496,0.0353287906963318
8.5,0.05546391176792096
8.504,0.10922357021122056
8.508000000000001,0.11577557639433801
8.512,-0.0014510048890539334
8.516,0.0022896103676865384
8.52,0.08047126815418928
8.524000000000001,-0.0037341660056684073
8.528,0.06049318284758024
8.532,0.004870173501780348
8.536,-0.020363560317865705
8.540000000000001,0.04431823171744131
8.544,0.02425237146429112
8.548,0.0010550729631165871
8.552,0.02619173803350096
8.556000000000001,0.045291165992861177
8.56,-0.048298294404063816
8.564,-0.06585851079390209
8.568,0.01607231509674375
8.572000000000001,-0.007247257203626293
8.576,-0.12058772415595023
8.58,-0.06586512346620306
8.584,-0.05195053924039102
8.588000000000001,0.01625392723223141
8.592,-0.042126192167656076
8.596,-0.04281764866065676
8.6,-0.021351545222125692
8.604000000000001,0.08894823630485607
8.608,-0.026384940019250982
8.612,-0.07091930772290739
8.616,-0.04162383475448422
8.620000000000001,-0.0575350915998226
8.624,-0.12412891600748727
8.628,-0.14455620491146315
8.632,-0.05760329755021489
8.636000000000001,-0.023826794884153568
8.64,-0.05034082478282686
8.644,0.009322466762430412
8.648,-0.0017838464066874185
8.652000000000001,0.058425435589363695
8.656,-0.03532241410345466
8.66,0.002898700662675363
8.664,-0.10062645315369305
8.668000000000001,-0.10904660389925269
8.672,0.08182795293733737
8.676,-0.018231781704286673
8.68,-0.09162979652452143
8.684000000000001,0.03435357316415758
8.688,0.10656056230677116
8.692,0.019227432547509617
8.696,0.01853985909610323
8.700000000000001,0.00967172666182331
8.704,0.006828247440428113
8.708,0.020136264579451835
8.712,0.07304954480097497
8.716,0.05235513989485441
8.72,0.04161952236508077
8.724,0.007191337105330946
8.728,-0.07398738523759811
8.732,-0.01471856813511932
8.736,-0.05843513726429257
8.74,-0.035011567127629414
8.744,-0.008786445624133568
8.748,0.13103794421377699
8.752,-0.05287708512998365
8.756,-0.0888017028555269
8.76,0.015403754615624987
8.764,-0.044171750277484864
8.768,-0.03983135045956176
8.772,0.05377873712207608
8.776,-0.08826951508569411
8.78,-0.07999534533526872
8.784,-0.02878563005925562
8.788,-0.022961353996721893
8.792,-0.01427107610171887
8.796,-0.03937520261743631
8.8,0.00306848959737413
8.804,-0.11914879197358597
8.808,-0.01298283881303305
8.812,-0.05149484061552255
8.816,-0.11144024342279582
8.82,0.03526570158617452
8.824,0.07359230895834919
8.828,-0.07382976493792419
8.832,-0.061062183273418155
8.836,0.013362170318662402
8.84,-0.05222686292906206
8.844,-0.06923492791141525
8.848,-0.05773675637701727
8.852,-0.04834021477157726
8.856,-0.16240788683112975
8.86,-0.06513296255761195
8.864,0.1772206278215802
8.868,0.30221668180519284
8.872,0.5822822338253723
8.876,0.8012099974413508
8.88,0.8985862135042503
8.884,0.9533299256604348
8.888,0.8358924567572611
8.892,0.56038537835693
8.896,0.3275499238506474
8.9,-0.027028104632025846
8.904,-0.11784828324012905
8.908,-0.23623036398178585
8.912,-0.22607703972787643
8.916,-0.20845584729329697
8.92,-0.15415908018098634
8.924,-0.04443837485354202
8.928,0.006331373804742205
8.932,-0.055667121557225335
8.936,-0.029871731408361066
8.94,0.03677869314457144
8.944,0.09984554231590842
8.948,-0.004652012223349548
8.952,-0.05990528931653279
8.956,0.003368364373594196
8.96,-0.10042621032416471
8.964,0.018390415031864917
8.968,-0.034053145488886875
8.972,-0.055383089476901654
8.976,0.05286057514819087
8.98,-0.054360608713961936
8.984,-0.01978325890833763
8.988,0.02747727523853101
8.992,0.09823157269523873
8.996,0.008376048382976672
9.0,-0.0406110836532536
9.004,-0.04077121111995947
9.008000000000001,-0.021225725502882677
9.012,0.0013895608305027757
9.016,0.00782339075402124
9.02,0.023587761506884696
9.024000000000001,0.01694937658052412
9.028,-0.09093749727812474
9.032,0.016628295016836797
9.036,0.006098598715704111
9.040000000000001,0.06670511094393403
9.044,0.009211893485971396
9.048,-0.05856908668830487
9.052,0.10052389503695036
9.056000000000001,0.027529404754269474
9.06,0.10135041375325923
9.064,0.021941324034272718
9.068,0.017775745401841354
9.072000000000001,0.10958849111824906
9.076,0.022582539522170673
9.08,0.15451869789483236
9.084,0.08405886040776886
9.088000000000001,0.083037227705397
9.092,0.21943088850474463
9.096,0.14463737492015205
9.1,0.11619833737402377
9.104000000000001,0.13990752349981048
9.108,0.25342457532433105
9.112,0.16146493885066332
9.116,0.23436489690163081
9.120000000000001,0.2692692522963996
9.124,0.19703831872493016
9.128,0.16780104424653447
9.132,0.15473885325817463
9.136000000000001,0.27508928057110676
9.14,0.15543554780721353
9.144,0.1031152702510949
9.148,0.17521403025491286
9.152000000000001,0.2034050751992311
9.156,0.1948327274201205
9.16,0.1413409228854023
9.164,0.203006007500536
9.168000000000001,0.21546258779996297
9.172,0.12043866077733657
9.176,0.22020601453135438
9.18,0.12000560628551332
9.184000000000001,0.1379014850589498
9.188,0.21531487988598705
9.192,0.178658452080996
9.196,0.16441129124095868
9.200000000000001,0.20932496346614413
9.204,0.19506912208317143
9.208,0.09151958356853607
9.212,0.06624135093848546
9.216000000000001,0.012410317959758416
9.22,-0.009091843189871482
9.224,-0.012986155980566558
9.228,0.007426965955593341
9.232,0.09573618910448098
9.236,0.16503178973986574
9.24,0.005737360672205032
9.244,0.12840410837375113
9.248,-0.03388782417975537
9.252,0.09669330565570469
9.256,0.016822871605818718
9.26,0.13701435433309278
9.264,0.009038348021736517
9.268,-0.007933383807019502
9.272,0.1440806911746913
9.276,-0.04293697949799209
9.28,0.0526579171516656
9.284,0.035455100316552794
9.288,-0.003749396610215984
9.292,0.09752211030957414
9.296,0.0903698193424379
9.3,0.002045105328078785
9.304,-0.03162286234033471
9.308,0.007445458563587432
9.312,-0.08165252813511543
9.316,0.025239168651906122
9.32,-0.0035119439844687322
9.324,0.05038907436810491
9.328,0.06670743650724556
9.332,0.010737454599187068
9.336,0.06047156878595251
9.34,0.04928105379123754
9.344,-0.0017555354008056967
9.348,-0.03597537041069237
9.352,0.07626784517656018
9.356,0.08122809245834572
9.36,0.07217299810888653
9.364,0.02749655345108959
9.368,0.10487822692604631
9.372,0.15601222696026618
9.376,0.0696971691936576
9.38,0.08131205244136239
9.384,0.09518546016318505
9.388,0.08862217046244561
9.392,0.1724201720367346
9.396,-0.006675594512166164
9.4,-0.02816969665555233
9.404,0.18461996544510706
9.408,0.18398545775279274
9.412,-0.0008018520519252476
9.416,0.10291934271430331
9.42,0.07611862003483842
9.424,0.10915948150269307
9.428,0.10106978860421195
9.432,0.0018304484389018646
9.436,0.08830752030372396
9.44,0.029940936840526775
9.444,0.10988838678695172
9.448,0.014852147513122667
9.452,0.02146977656308147
9.456,0.0836482820741407
9.46,0.009668591169170068
9.464,0.03583457934709702
9.468,-0.0032709838837354926
9.472,0.0704612773091137
9.476,0.014984593251734783
9.48,-0.0540919900822249
9.484,0.03088093294074891
9.488,-0.07333312429519726
9.492,0.03131260195697295
9.496,0.0027629051180009835
9.5,0.08456370661795481
9.504,0.0036933118655004746
9.508000000000001,0.04090713846464931
9.512,0.021069860934323736
9.516,0.02329002150074872
9.52,0.07935575521321164
9.524000000000001,-0.0006674986423503872
9.528,0.0108033996447136
9.532,-0.04572248540438229
9.536,-0.07579742948417661
9.540000000000001,0.09218410828804827
9.544,0.06126178290965914
9.548,0.20259190137239863
9.552,0.5492943182109257
9.556000000000001,0.8585776269255195
9.56,0.9597312221075293
9.564,1.0853903803927276
9.568,0.9991982767620606
9.572000000000001,0.764497697482953
9.576,0.3702152075457785
9.58,0.20359864929558028
9.584,-0.022467357084315805
9.588000000000001,-0.09352302393295094
9.592,-0.12981494567643617
9.596,-0.14870395401699096
9.6,-0.1412045259951624
9.604000000000001,0.009296342222547986
9.608,0.016927451507111595
9.612,0.018296346202278213
9.616,0.00965781142291319
9.620000000000001,0.0718186947388109
9.624,0.017055274228049838
9.628,0.09362637354480793
9.632,0.031750065272556936
9.636000000000001,0.031214189242089387
9.64,0.041389715199736735
9.644,0.0815653851690675
9.648,0.014607356842963427
9.652000000000001,0.0021145696028122968
9.656,0.14366934498157824
9.66,-0.023294117390479388
9.664,0.03199236875802649
9.668000000000001,0.07747968740099327
9.672,0.14544709377546317
9.676,0.025300908678623446
9.68,0.10437471721080781
9.684000000000001,0.03750834571960557
9.688,0.09778851597099125
9.692,0.08620444999736955
9.696,0.05060837641265375
9.700000000000001,0.0264263132040099
9.704,0.04038687717388059
9.708,0.07400718150376577
9.712,0.022407718388436526
9.716000000000001,0.09007673089955484
9.72,0.10151675718010836
9.724,0.0717666530416868
9.728,0.1617664595831526
9.732,0.05213050376400873
9.736,0.09001192649966017
9.74,0.10476542844955761
9.744,0.09737839934267699
9.748,0.11576381944339974
9.752,0.20795170171192445
9.756,0.12650890686543706
9.76,0.18501945991285434
9.764,0.18568754640551421
9.768,0.22447404054758893
9.772,0.22636646360327847
9.776,0.2284997749630578
9.78,0.16439148870141246
9.784,0.2706754063428698
9.788,0.24346011302653725
9.792,0.19586723739881823
9.796,0.26812521006748974
9.8,0.18951918649827837
9.804,0.3123961306994096
9.808,0.23595263848147457
9.812,0.1933360432345082
9.816,0.35136530764759694
9.82,0.3546093065527689
9.824,0.35968579129012646
9.828,0.2791581500182871
9.832,0.33940383075692415
9.836,0.30544519059345604
9.84,0.23700605366210892
9.844,0.19381910959923476
9.848,0.31193857699355726
9.852,0.2211484127396981
9.856,0.22197120610598742
9.86,0.1566034601429856
9.864,0.3420582207765317
9.868,0.21207816320433243
9.872,0.22958001601449546
9.876,0.21421424721076873
9.88,0.24387021189578173
9.884,0.16774837099092954
9.888,0.11520768227094996
9.892,0.028975895204155222
9.896,0.13665021359521237
9.9,0.18076718558984178
9.904,0.1233353886121829
9.908,0.16790747750720264
9.912,0.10132005508406823
9.916,0.09941764375565643
9.92,0.07374431250692452
9.924,0.07498471404431015
9.928,0.15390210878581578
9.932,0.10229808564542273
9.936,0.07309356715851842
9.94,0.10097831488143787
9.944,0.11678802946699299
9.948,0.045361664383018876
9.952,0.07459843994386445
9.956,0.11910799157348059
9.96,0.06861950173746172
9.964,0.06357043827060366
9.968,0.10930852718570573
9.972,0.024446642659131393
9.976,0.06427084648311156
9.98,0.0698038825880307
9.984,0.12714797432300085
9.988,0.10076682445904353
9.992,0.06248516498133675
9.996,0.09148719858869067
10.0,0.007589849684652969
10.004,0.025125241764009182
10.008000000000001,0.011847212680918776
10.012,0.16132339688752032
10.016,0.09028763836441521
10.02,0.11690724049913072
10.024000000000001,0.21246387698602687
10.028,0.04938257848623215
10.032,0.13277693455743583
10.036,0.12299296905729547
10.040000000000001,0.10935380178825502
10.044,0.11137192694572146
10.048,0.1638518342484323
10.052,0.11817037662135468
10.056000000000001,0.15331493605590252
10.06,0.18900800167750517
10.064,0.08240032341565531
10.068,0.16946927868529052
10.072000000000001,0.08924229916223217
10.076,0.19564907216116467
10.08,0.17794089612799113
10.084,0.21631217980928863
10.088000000000001,0.12511286239777464
10.092,0.19688700015966687
10.096,0.11861776571897291
10.1,0.16313841793079512
10.104000000000001,0.10377403980905173
10.108,0.14277570287163627
10.112,0.04640844254553867
10.116,-0.006125223099294294
10.120000000000001,0.12070732456521933
10.124,0.09413126810019991
10.128,0.0665143890076059
10.132,0.11414954380751333
10.136000000000001,0.024249371288712004
10.14,0.08699788780120073
10.144,0.12122834359471092
10.148,0.06235056044901343
10.152000000000001,0.07471165862823244
10.156,0.022368750990999345
10.16,0.05484124344273324
10.164,0.0828793061376145
10.168000000000001,0.016243101263020088
10.172,-0.06939213924855245
10.176,0.10989585703874774
10.18,0.031746213626881604
10.184000000000001,0.06282762769201958
10.188,0.11512159301770233
10.192,0.054685473885222144
10.196,0.13399380693802365
10.200000000000001,0.04667119439236304
10.204,0.06534106339681721
10.208,0.020057231298414066
10.212,0.0036569718232824103
10.216000000000001,-0.04929108789801025
10.22,-0.01813391421331184
10.224,0.047224579407379216
10.228,0.2744292347437548
10.232000000000001,0.387308420532181
10.236,0.7844893341048147
10.24,0.9508328725811319
10.244,1.0310915885446932
10.248,0.9234933827164925
10.252,0.8621360667134207
10.256,0.5982226412914154
10.26,0.3285555961120161
10.264,0.049556898645353176
10.268,0.013899861034204538
10.272,-0.0686569027334714
10.276,-0.07083206024536644
10.28,-0.03668618629484741
10.284,-0.02667190490534432
10.288,0.024876375471091724
10.292,0.08141042340182897
10.296,0.13700321706670918
10.3,0.09147740247774319
10.304,0.11172125388643356
10.308,0.021884829052960728
10.312,0.14418383566048115
10.316,0.051439234167096094
10.32,0.0948888355337106
10.324,0.13002701868471694
10.328,0.038541006199633694
10.332,0.08609043986293084
10.336,0.10148817566756121
10.34,0.11998792880141818
10.344,0.11378297689434155
10.348,-0.039595008270765245
10.352,0.09603500529795878
10.356,0.18971346229549596
10.36,0.043234604536390664
10.364,0.03594449555896887
10.368,0.052653402247600185
10.372,0.06700542726846698
10.376,0.06652697739344622
10.38,0.08250199613972851
10.384,0.04999295334914061
10.388,0.06069222672799971
10.392,0.16131311528400616
10.396,0.05125438104635212
10.4,0.06181915025670021
10.404,0.19242357135781052
10.408,0.008671025270867896
10.412,0.14161527337152968
10.416,0.07545506726772713
10.42,0.21077061859043314
10.424,0.18217421458853258
10.428,0.09616904315394292
10.432,0.1421041786098372
10.436,0.1647713488409869
10.44,0.2024607904630001
10.444,0.1861702738394341
10.448,0.22269516248544127
10.452,0.1666217787653209
10.456,0.219235674959502
10.46,0.14339610617933457
10.464,0.2090334297682482
10.468,0.31124110750782785
10.472,0.30469418315567265
10.476,0.18203557553278524
10.48,0.25385700928149846
10.484,0.38104583972543155
10.488,0.25402573130609124
10.492,0.3584156263890754
10.496,0.2694199100914377
10.5,0.3725647983851557
10.504,0.27419961584650104
10.508000000000001,0.3762446459687735
10.512,0.3313396785047752
10.516,0.2999053003037825
10.52,0.34550462557610917
10.524000000000001,0.2377462239237801
10.528,0.24176412188429686
10.532,0.26406116566022947
10.536,0.33975358897839997
10.540000000000001,0.24887237502228834
10.544,0.20727973894641286
10.548,0.25976830173027426
10.552,0.14222784373603353
10.556000000000001,0.21601949431906614
10.56,0.1993764819305467
10.564,0.16227085613842226
10.568,0.12427992600300519
10.572000000000001,0.12001941467778551
10.576,0.13848802798399476
10.58,0.17210813904739314
10.584,0.20178187606181958
10.588000000000001,0.17350827974014796
10.592,0.1416773180085441
10.596,0.07493065766196405
10.6,0.1016839511646782
10.604000000000001,0.03658951212121461
10.608,0.03336077125763494
10.612,0.012209567941151467
10.616,0.12390917685400019
10.620000000000001,0.048057096003780976
10.624,0.09877345779787539
10.628,0.06834268077578912
10.632,0.12621589137444325
10.636000000000001,0.11735762142559873
10.64,0.11237430473259241
10.644,0.12044586692417307
10.648,0.04629286592203179
10.652000000000001,0.09594380040703204
10.656,0.16451123141819435
10.66,0.07292579711685421
10.664,0.10782807481393128
10.668000000000001,0.044420621011940345
10.672,0.08831706004758728
10.676,0.07396047534755454
10.68,0.10891550203142983
10.684000000000001,0.09925899460595487
10.688,0.035935453772809704
10.692,0.024107443940120737
10.696,0.04168892045142623
10.700000000000001,0.0520710935964146
10.704,0.0550100687335566
10.708,0.10986976035664765
10.712,0.09632595424273861
10.716000000000001,0.11099619554936463
10.72,0.1665344170172098
10.724,0.11460679210974839
10.728,0.12634265906317202
10.732000000000001,0.15071471128870817
10.736,0.1425519669842208
10.74,0.18849910471944575
10.744,0.13663174756870514
10.748000000000001,0.13491706405106488
10.752,0.169763369889175
10.756,0.17828055799220158
10.76,0.12537991387064304
10.764,0.091559374938188
10.768,0.12626983683808307
10.772,0.23227140175062674
10.776,0.10667494391769727
10.78,0.0056184752145727185
10.784,0.1696193516668569
10.788,0.13589660815874116
10.792,0.10752910198639132
10.796,0.09741865098203245
10.8,0.09772455351497508
10.804,0.12123081810109956
10.808,0.04685874363698089
10.812,0.18073285659008065
10.816,0.15252261954285154
10.82,0.12981941021010085
10.824,0.119842787880447
10.828,0.06725092879943449
10.832,0.07025701032390178
10.836,0.051394432103034626
10.84,-0.0026306251326049176
10.844,0.09560672885352196
10.848,-0.018413162006106078
10.852,0.16689433129980819
10.856,0.03527986156312159
10.86,0.03483545072842996
10.864,0.10154754166691644
10.868,0.07084454290804817
10.872,0.07245203740879326
10.876,0.10950457107139597
10.88,-0.026641783636749454
10.884,0.031576525776278626
10.888,0.004784046557451266
10.892,-0.00533530264437956
10.896,-0.057784531698812515
10.9,-0.07257892233014132
10.904,0.018474383310532014
10.908,0.11148968884511089
10.912,0.2730149554072679
10.916,0.5095889099384034
10.92,0.735744104318002
10.924,1.0382988540181166
10.928,0.9993319711203591
10.932,0.9014171163748268
10.936,0.7213469812645645
10.94,0.600736569631791
10.944,0.07447804822584791
10.948,-0.12141491174374358
10.952,-0.052117806423383456
10.956,-0.03450449310540388
10.96,-0.09865190805271098
10.964,0.011248032639446848
10.968,-0.09599569903826152
10.972,-0.07710706386114899
10.976,-0.08019740393030081
10.98,0.012888032529390662
10.984,-0.0021135518855002686
10.988,0.08463244533743126
10.992,0.030363649127635412
10.996,0.018572596228192434
11.0,0.0893416941537174
11.004,-0.02856705943781806
11.008000000000001,0.05609779642791261
11.012,-0.01870319061475653
11.016,0.12444344918145919
11.02,0.1615848892076711
11.024000000000001,-0.004486390143647885
11.028,0.0048637871959952075
11.032,0.007121540093272882
11.036,0.06184538557772904
11.040000000000001,0.08466711702151807
11.044,0.027963994964714474
11.048,0.06701841969345218
11.052,0.03373168281607967
11.056000000000001,0.0005756301300270106
11.06,-0.011931903886277705
11.064,-0.08697943537286355
11.068,0.06477425987591656
11.072000000000001,0.0019476125451417664
11.076,-0.03313772602999815
11.08,0.14919602587827246
11.084,0.05078176896420371
11.088000000000001,0.04494003615789734
11.092,-0.0057902181084708085
11.096,0.12925861944728653
11.1,0.13889331893066237
11.104000000000001,0.10024488580861637
11.108,-0.026238958010313396
11.112,0.07530918963914615
11.116,0.1539397606812456
11.120000000000001,0.19824473802997386
11.124,0.190156138295912
11.128,0.10315500098305794
11.132,0.11527000116343625
11.136000000000001,0.07925011942061282
11.14,0.08010991753251541
11.144,0.14653833398575844
11.148,0.23699897825416372
11.152000000000001,0.24292965863371072
11.156,0.24200575587294193
11.16,0.21273354016266935
11.164,0.29124118511660496
11.168000000000001,0.17110849820957785
11.172,0.28614000366037506
11.176,0.31875868740501784
11.18,0.2400867426322101
11.184000000000001,0.2306984998364509
11.188,0.34236191595774584
11.192,0.3368603471763409
11.196,0.2340748132294221
11.200000000000001,0.24717421560787936
11.204,0.2664762575543336
11.208,0.2628003667751899
11.212,0.2192779726813827
11.216000000000001,0.20448434563344306
11.22,0.31186195459019295
11.224,0.1446329338323988
11.228,0.14455361338113765
11.232000000000001,0.1049617787397695
11.236,0.17497623490728334
11.24,0.1437212588180501
11.244,0.26332536247218846
11.248000000000001,0.18370273914121368
11.252,0.1421697839077525
11.256,0.07554224113522065
11.26,0.058251443031096646
11.264,-0.0587426826750596
11.268,0.0491125574935808
11.272,0.07196613085191592
11.276,-0.0004382268901089656
11.28,0.05424941366278037
11.284,-0.015984698284754566
11.288,0.16518941058198258
11.292,0.03194419009961668
11.296,-0.04530032128722723
11.3,0.028519978999453775
11.304,0.002569013825505617
11.308,-0.0033083068946932574
11.312,-0.016325535005332154
11.316,-0.01154079242710224
11.32,0.09646005779748948
11.324,-0.04482494316172438
11.328,-0.01577612301602996
11.332,-0.029747932204307777
11.336,-0.017176705659133377
11.34,-0.013749512137808456
11.344,0.07064906591984203
11.348,0.05413999296339902
11.352,0.02306285934191661
11.356,0.05116436878100809
11.36,0.006261450331498503
11.364,0.03356654075743743
11.368,-0.038524707572830684
11.372,0.0017276528976188643
11.376,0.018775148129818085
11.38,0.09183710350743624
11.384,0.044364009325547585
11.388,-0.03575827538997498
11.392,0.0015139465871844213
11.396,0.05019487511594588
11.4,-0.022264188727513422
11.404,-0.019685969354984553
11.408,0.038339125855734346
11.412,-0.02245054926255545
11.416,0.052738193537519615
11.42,0.07122699606352889
11.424,0.06812188308106674
11.428,0.11425437086455162
11.432,-7.099549348787981e-05
11.436,0.05328918920462927
11.44,0.11742170116423875
11.444,0.03878185441125094
11.448,0.050196852895196764
11.452,-0.021577423658442077
11.456,0.11474056470095997
11.46,0.0756965591454277
11.464,0.03260407464227445
11.468,-0.053590192156969654
11.472,0.009531991750703173
11.476,-0.014443682404854798
11.48,0.034851061746999146
11.484,-0.013334506314916382
11.488,0.02984348731320432
11.492,-0.09020204989725449
11.496,-0.041532650289708525
11.5,0.02208413674382377
11.504,-0.009476819810500465
11.508000000000001,-0.0738668819516909
11.512,0.08868644713540283
11.516,-0.030987184354107918
11.52,-0.04417812060562735
11.524000000000001,0.0749879679706858
11.528,-0.06891501546433301
11.532,-0.014563117202269793
11.536,-0.018276487513351695
11.540000000000001,0.022891263786713963
11.544,0.0700830324407363
11.548,0.02945801919690957
11.552,-0.023588169212603902
11.556000000000001,0.07748131014525422
11.56,-0.07834278046390326
11.564,-0.011390473548782934
11.568,-0.07254251110716889
11.572000000000001,-0.00788988253451725
11.576,-0.08797682950994404
11.58,-0.15049162832598148
11.584,-0.07563797533564899
11.588000000000001,-0.027293630247478766
11.592,0.08854956466473152
11.596,0.41756290064197854
11.6,0.5571562256895228
11.604000000000001,0.8017306556281657
11.608,1.0036626508623843
11.612,0.895201975204946
11.616,0.6908964861832145
11.620000000000001,0.4782722434008967
11.624,0.21816570278406855
11.628,-0.01644142708769495
11.632,-0.20372619021268268
11.636000000000001,-0.2086771517560014
11.64,-0.2249762194123585
11.644,-0.17470360376445593
11.648,-0.1636873354353133
11.652000000000001,-0.12978579515506042
11.656,-0.0279515528424756
11.66,-0.04409701972205235
11.664,-0.11926338756391106
11.668000000000001,-0.017130416168478064
11.672,0.019920360012422127
11.676,-0.0007177617386102744
11.68,0.006167296948399258
11.684000000000001,0.0519107210923946
11.688,0.05763775819713647
11.692,-0.0569203664219587
11.696,-0.07199790951858565
11.700000000000001,-0.04231114222080271
11.704,-0.01370068356976809
11.708,-0.03364263105081707
11.712,-0.132539413513188
11.716000000000001,-0.07234376968274264
11.72,-0.028780481258463966
11.724,-0.01781613784686387
11.728,-0.04849296004176549
11.732000000000001,-0.13738085120553045
11.736,0.06551237620394804
11.74,-0.06118842778671571
11.744,-0.022159018588082245
11.748000000000001,0.02983782217308744
11.752,-0.03882684332033387
11.756,-0.02775016123777642
11.76,-0.02202692506695595
11.764000000000001,-0.04036509671082297
11.768,-0.032208466346743216
11.772,0.04488028460848492
11.776,0.09653100610233413
11.78,-0.027339276989528323
11.784,-0.08715778706878585
11.788,0.054919407117951784
11.792,0.028866380668436654
11.796,-0.008055509364114758
11.8,0.06652192801974954
11.804,0.07000037496790755
11.808,0.15827434974929447
11.812,0.0004223424575002105
11.816,0.005279905245114971
11.82,0.2031649793561477
11.824,0.13531617580837796
11.828,0.07088458842546108
11.832,0.09084424639041548
11.836,0.20196192419792558
11.84,0.25491227546827167
11.844,0.0774319152145569
11.848,0.27515515852751704
11.852,0.15436721380962984
11.856,0.16457085035227373
11.86,0.2209884179420869
11.864,0.18785166067573095
11.868,0.26030437229306064
11.872,0.1391839520713178
11.876,0.14676351624736625
11.88,0.06846589193851335
11.884,0.22879804806756798
11.888,0.16415911835942898
11.892,0.1832561945286949
11.896,0.12268966700385586
11.9,0.24792290613198542
11.904,0.07278303326518595
11.908,0.2125889416321464
11.912,0.07205313781314177
11.916,-0.024144443738525548
11.92,0.06191089479407001
11.924,0.0683787831943116
11.928,0.17329424370049562
11.932,0.03729611653425924
11.936,0.015134283642566734
11.94,0.07397950688888377
11.944,-0.045327304398778474
11.948,0.07456255632088554
11.952,-0.00901734694495079
11.956,0.01159258198969831
11.96,-0.14187166822487304
11.964,-0.1194934592769751
11.968,0.03019135208432292
11.972,-0.016222056472762432
11.976,-0.05834269292637571
11.98,-0.07083033708530037
11.984,-0.042800946705216315
11.988,-0.012691234611842104
11.992,-0.09797057720665545
11.996,-0.030098092321586153
