elapsed_time_s,signal_mV
0.0,0.05541740605859309
0.004,-0.009409839473403186
0.008,0.005189660514381596
0.012,0.03056726025763957
0.016,0.018508820604791767
0.02,0.0036982101745836977
0.024,0.025794386116674978
0.028,0.014213865552346695
0.032,0.0052922404459126715
0.036000000000000004,-0.021886187360829625
0.04,0.05284844050939187
0.044,0.001017337838728441
0.048,0.016077124481098486
0.052000000000000005,0.01924536857148239
0.056,0.020509081488823133
0.06,0.00891998223722112
0.064,0.015716054259564145
0.068,-0.0003156319693830064
0.07200000000000001,0.03655243922143087
0.076,0.039929663972315704
0.08,-0.041774980836056
0.084,0.043024596713809794
0.088,0.00860802298136146
0.092,-0.010463229889254487
0.096,-0.036881950711737284
0.1,0.013580182233591854
0.10400000000000001,0.020103082379380122
0.108,0.010751039836423946
0.112,-0.02312305791746184
0.116,0.051615729828438525
0.12,0.02746468399796765
0.124,0.012322881937438794
0.128,-0.03718545264461279
0.132,-0.007513208311544055
0.136,0.03125283058505339
0.14,-0.0008792799148192448
0.14400000000000002,-0.016036200632132156
0.148,-0.04231443712036674
0.152,0.01632957804239997
0.156,0.026937632190668748
0.16,0.032055015211843785
0.164,0.03790194130671279
0.168,0.05360862525069069
0.17200000000000001,0.0514315453955093
0.176,-0.01711852701098893
0.18,0.0340688138439994
0.184,0.012353462162868577
0.188,-0.016073971990024406
0.192,0.004098475692269392
0.196,-0.018299097630001065
0.2,0.013816048197363163
0.20400000000000001,0.03923326899400096
0.20800000000000002,0.012652706350636445
0.212,-0.026782204759168003
0.216,0.006086109758010536
0.22,0.008872408331109922
0.224,-0.024269959123207906
0.228,0.0669425931873813
0.232,-0.004822132827444122
0.23600000000000002,-0.0070392239104085305
0.24,0.01712341142046604
0.244,0.0433765888398179
0.248,0.049045293439369586
0.252,-0.002811245140523201
0.256,-0.005190099076628166
0.26,-0.0051332517829281495
0.264,0.025791325518675454
0.268,0.02251402472639612
0.272,0.039541578878680095
0.276,-0.0015340063760755796
0.28,-0.03257401614558418
0.28400000000000003,0.019060231101716542
0.28800000000000003,0.04391904079388376
0.292,0.027829587575953132
0.296,0.004231805631425214
0.3,-0.010005874227258803
0.304,0.013985653223143813
0.308,-0.007217718066937814
0.312,0.0367747930591268
0.316,-0.0651099109412812
0.32,0.018750165965100186
0.324,0.0609029962158206
0.328,0.0073145240111307545
0.332,0.00132332423703245
0.336,0.010057323553061239
0.34,-0.0387629329975688
0.34400000000000003,-0.028062284291456824
0.34800000000000003,0.004235064676493618
0.352,0.030278896500285986
0.356,0.004248384171160555
0.36,-0.016239578568848025
0.364,-0.00388086478188163
0.368,0.007910563758047405
0.372,-0.022840582252616877
0.376,0.03824028726786248
0.38,-0.008472882113365209
0.384,0.015396165317427834
0.388,0.0554135473340157
0.392,0.006004330319278682
0.396,0.0029650832483886815
0.4,0.0068573225865456115
0.404,0.004525722892775908
0.40800000000000003,0.029874684209292585
0.41200000000000003,0.022224136014343122
0.41600000000000004,0.025664874143246145
0.42,0.01878904353189909
0.424,0.0031110710622202324
0.428,0.023566003200670906
0.432,0.020139370444204812
0.436,0.059773904354615215
0.44,-0.0204127430756234
0.444,0.009010257202093959
0.448,0.009311065161101015
0.452,0.04565137455879258
0.456,0.03474130849725452
0.46,0.003479108971010385
0.464,0.06244543190141543
0.468,0.015255475430787452
0.47200000000000003,0.05635785348156527
0.47600000000000003,0.029870371202765818
0.48,0.014810001388945351
0.484,0.04599369289522345
0.488,0.06099672909310826
0.492,0.10369083680669205
0.496,0.05550541283437796
0.5,0.0957335360952773
0.504,0.10116361255290335
0.508,0.07641584491369555
0.512,0.049993372145296054
0.516,0.08811267959714876
0.52,0.12541239090804118
0.524,0.11748824246344577
0.528,0.09700720993282806
0.532,0.05863970865242494
0.536,0.07935340130970607
0.54,0.11806129017393861
0.544,0.0707001878480755
0.548,0.0821590762975259
0.552,0.09539407199297334
0.556,0.07473689609585217
0.56,0.0574671015580098
0.5640000000000001,0.05152651821209438
0.5680000000000001,0.046051290156847606
0.5720000000000001,0.08372759427181445
0.5760000000000001,-0.045403544494177384
0.58,0.016150534506902514
0.584,0.06976307847172375
0.588,0.06513646861590836
0.592,0.03142725155042791
0.596,0.004038526878463167
0.6,0.043931746050325717
0.604,0.05048990468461165
0.608,0.02029160636773651
0.612,0.05592139889894765
0.616,0.018451427281420726
0.62,0.07136738725109437
0.624,0.06406194230782407
0.628,0.019461505375833188
0.632,0.02706432477982557
0.636,0.02509636382276527
0.64,0.06841322528957904
0.644,-0.05408403517035801
0.648,0.013021571320191345
0.652,0.02115107939474707
0.656,0.04051846998061561
0.66,0.010819920583348654
0.664,-0.04827819719336464
0.668,0.009707148984495713
0.672,-0.023576677226156584
0.676,0.01085969406588035
0.68,0.07621342162924238
0.684,0.247777468783198
0.6880000000000001,0.5447957424542065
0.6920000000000001,0.7711080492474031
0.6960000000000001,0.9519251172389621
0.7000000000000001,1.0531037054606798
0.704,0.9154394664215881
0.708,0.7298427843892813
0.712,0.4341280241874899
0.716,0.23090445111639715
0.72,0.03336366955441186
0.724,-0.10969762012946936
0.728,-0.1795620591551187
0.732,-0.15853672427833118
0.736,-0.11060592300366136
0.74,-0.09799437760426277
0.744,-0.01590111133295489
0.748,0.0316003734373389
0.752,0.00871236070767185
0.756,0.03198832743338475
0.76,0.07550300136543417
0.764,0.017694001821239695
0.768,0.010172580541327872
0.772,0.018831122037308266
0.776,0.043995339293680484
0.78,0.009992239335914976
0.784,0.04758816041401106
0.788,-0.027885369534201565
0.792,-0.004599688598163794
0.796,0.018948684346508538
0.8,0.04890098606873313
0.804,0.09403201458763899
0.808,0.012655162535700138
0.812,-0.02257705015340301
0.8160000000000001,0.04481195065505178
0.8200000000000001,0.0648096894406706
0.8240000000000001,0.07082819013334132
0.8280000000000001,0.0354646509435398
0.8320000000000001,0.015043277224526141
0.836,0.03639782154726261
0.84,0.05089527204060303
0.844,0.0799523342868288
0.848,0.08694194673417395
0.852,0.05156058689199764
0.856,0.011378593166083438
0.86,-0.0031987460903500076
0.864,0.08032406217161422
0.868,0.05341828141348662
0.872,0.09567401084425205
0.876,0.07949904556710777
0.88,0.0958059470278666
0.884,0.152797137328471
0.888,0.11292865110457245
0.892,0.10853843867915601
0.896,0.1142788988491506
0.9,0.13196527258977978
0.904,0.14643823491837765
0.908,0.13884179126905777
0.912,0.17498550481068648
0.916,0.19906364557375933
0.92,0.21884922192996298
0.924,0.21649368441116948
0.928,0.20822166571627104
0.932,0.28173649513395654
0.936,0.24703170776910108
0.9400000000000001,0.2646389568856135
0.9440000000000001,0.24888442926918072
0.9480000000000001,0.24461573656200836
0.9520000000000001,0.23772909518880833
0.9560000000000001,0.2873422094750467
0.96,0.24722923849371767
0.964,0.27710232943733737
0.968,0.27031278833577166
0.972,0.27440773254367506
0.976,0.27477033332518525
0.98,0.23567766666645454
0.984,0.25801312044029495
0.988,0.21313586467175713
0.992,0.22236289648898583
0.996,0.1855807811665336
1.0,0.18200249944591318
1.004,0.16816533392187188
1.008,0.16806256826179966
1.012,0.12278796437522685
1.016,0.12865643584141917
1.02,0.14804345613589528
1.024,0.12270065318285962
1.028,0.14167293741371265
1.032,0.12253742313239577
1.036,0.09729215158069572
1.04,0.03690697831705728
1.044,0.09159012692567929
1.048,0.04366886597625294
1.052,0.08095449982218114
1.056,0.07889591665540582
1.06,0.07320438428341211
1.064,0.05763502855235369
1.068,0.03743111399977672
1.072,0.0566119670372882
1.076,0.04752953471966076
1.08,0.05820930707610912
1.084,0.07117680578630903
1.088,0.03408532451471563
1.092,0.05198135823069583
1.096,0.04662721517112389
1.1,0.027153372053288303
1.104,0.020025720834743
1.108,0.03429297865030165
1.112,0.06726572881183102
1.116,0.08855739020871922
1.12,0.046782865692755055
1.124,0.02892754884131038
1.1280000000000001,0.036601954489662615
1.1320000000000001,0.032693850785522414
1.1360000000000001,0.06283735706899776
1.1400000000000001,0.017222754286805222
1.1440000000000001,0.05957944208830855
1.1480000000000001,0.03771408406072011
1.1520000000000001,0.06005564250826076
1.156,0.0765759722017531
1.16,0.046889472679941126
1.164,0.09188328064389417
1.168,0.0029445349157094444
1.172,0.06780035729799296
1.176,0.07400902989104297
1.18,0.01680237415836256
1.184,0.01930610131460921
1.188,0.06961772160547867
1.192,0.032704328901244126
1.196,0.021916793471310144
1.2,0.006599681353942566
1.204,0.0570667473036937
1.208,0.06162496292697554
1.212,0.003497337234611181
1.216,0.021453082493617468
1.22,0.04911681574225091
1.224,0.006957818846433199
1.228,0.022254548771106962
1.232,0.0567050610295748
1.236,0.07712389680197171
1.24,0.03279532562892851
1.244,0.036939984194593725
1.248,0.07912966285522383
1.252,0.0650128992253973
1.256,0.0627502470620166
1.26,0.04322919935558407
1.264,0.00946202201772832
1.268,0.03779232290386504
1.272,0.030649942074078673
1.276,0.039929328233397274
1.28,0.0328223541127049
1.284,0.05635335771577765
1.288,0.058348615340784254
1.292,0.0440100444372028
1.296,0.04885009413557198
1.3,0.06848585024631763
1.304,0.05525737403730682
1.308,0.027582931417310518
1.312,0.05135934256923325
1.316,0.056230007406813956
1.32,0.03215008657903662
1.324,0.02970094153742425
1.328,0.022094478102468895
1.332,0.03675128276149308
1.336,0.010281436682195694
1.34,0.07708023347697984
1.344,0.005947093912143667
1.348,0.07699654607532683
1.352,0.06885590275716484
1.356,0.06392787855267917
1.36,0.02944050813654224
1.364,0.007125275537672622
1.368,0.06720408171523584
1.372,0.10477891726002891
1.3760000000000001,0.014502058428187768
1.3800000000000001,0.02269301200543301
1.3840000000000001,0.059148970442703896
1.3880000000000001,0.03275424252898296
1.3920000000000001,0.03975974888554323
1.3960000000000001,0.0347243289547199
1.4000000000000001,0.02665478067130003
1.4040000000000001,0.048238795812999224
1.408,0.07047344916126579
1.412,0.043650705897588626
1.416,0.06438490258576735
1.42,0.06991232340060731
1.424,0.024056925485302215
1.428,0.02410863283163349
1.432,0.05029544480341182
1.436,0.041025861276374885
1.44,0.05139874610893429
1.444,0.06952512168232426
1.448,0.07628357470517197
1.452,0.024828990203374576
1.456,0.02456994463512387
1.46,0.033251999875709856
1.464,0.04156318611881726
1.468,0.03756399584512751
1.472,0.0424560711519451
1.476,0.0638830048573184
1.48,0.07116749195221504
1.484,0.012170813360829928
1.488,0.03200537069077147
1.492,-0.01617477912478916
1.496,0.01844288559136771
1.5,0.029003592422348734
1.504,0.029869178677292704
1.508,0.031904804396923545
1.512,0.05782975666193847
1.516,0.025290248851128672
1.52,0.04722938449649888
1.524,0.06441892069384811
1.528,0.0008080672670542251
1.532,0.038161689008894675
1.536,0.025609357763204776
1.54,0.07794252880838581
1.544,0.02396682544000365
1.548,0.024386836359671094
1.552,0.030088826434531812
1.556,0.06978672152158798
1.56,0.01806416147681683
1.564,0.03600852821419458
1.568,0.031321227990041556
1.572,0.06158563691762362
1.576,0.015384516232932202
1.58,0.03806033685056573
1.584,0.03703219142810387
1.588,0.02750758534732954
1.592,0.04624264935412242
1.596,0.005277818669834289
1.6,0.024428024388254907
1.604,0.03661560136335769
1.608,0.026332069899658143
1.612,0.01478535525315946
1.616,0.03513670506109933
1.62,0.0656132415732517
1.624,0.02066033350029033
1.6280000000000001,-0.006130384508494388
1.6320000000000001,0.06645709918426693
1.6360000000000001,0.051159416580568426
1.6400000000000001,0.03486264280834877
1.6440000000000001,0.017646176323455144
1.6480000000000001,0.01468457328161181
1.6520000000000001,0.0074310580605419785
1.6560000000000001,0.0752805796710839
1.6600000000000001,0.037114578088039585
1.6640000000000001,0.06681545515738342
1.668,0.020720714757366587
1.672,0.07317745731013592
1.676,0.08195530123533819
1.68,0.07643386154500043
1.684,0.07204326206083994
1.688,0.1164399904378857
1.692,0.08721589605579622
1.696,0.09907271975185222
1.7,0.07619635844094325
1.704,0.11442066589699386
1.708,0.07944863607419553
1.712,0.1147454302707763
1.716,0.09887040911393194
1.72,0.15392447047159935
1.724,0.036598662470478334
1.728,0.11137898077896696
1.732,0.07153877204356361
1.736,0.06716785896807273
1.74,0.020189901310042113
1.744,0.047543701070957387
1.748,0.03134987297960421
1.752,0.01779588803651917
1.756,0.09827642735478923
1.76,-0.0029691146327143793
1.764,0.015169826493610806
1.768,0.006545872431870738
1.772,0.026042553852759387
1.776,0.07835226293801113
1.78,0.03507311094230163
1.784,0.02877490698778249
1.788,0.03066466631194101
1.792,-0.013195201723761544
1.796,-0.02304812722989013
1.8,0.018365281457119353
1.804,0.0644513461528806
1.808,0.024648750864572574
1.812,0.019731038650594147
1.816,0.031069154388311426
1.82,-0.0006627626718875117
1.824,0.04016964389700535
1.828,-0.007158185010545416
1.832,-0.00171533255129383
1.836,-0.0038600636800570735
1.84,0.02711313874604351
1.844,-0.017394396779937038
1.848,-0.03038625018258746
1.852,-0.046487611950084363
1.856,0.011994322448876278
1.86,0.028499984787438478
1.864,0.08660491143111966
1.868,0.29430085003560086
1.872,0.5518392233601428
1.8760000000000001,0.8007396332331852
1.8800000000000001,0.9684769780241425
1.8840000000000001,1.0673218491020757
1.8880000000000001,0.8384654662855149
1.8920000000000001,0.6386793475045074
1.8960000000000001,0.3966852005296031
1.9000000000000001,0.14150352341643155
1.9040000000000001,0.0006877087863367964
1.9080000000000001,-0.1299300778578758
1.9120000000000001,-0.17191234789713597
1.9160000000000001,-0.17263879571852508
1.92,-0.12199726582397034
1.924,-0.09195877857255237
1.928,-0.007463912679267465
1.932,0.02934561600254361
1.936,0.0054248815694002365
1.94,-0.04696968321733168
1.944,0.04367275516720983
1.948,0.027132107892604018
1.952,0.004335397438216922
1.956,-0.010366158741818822
1.96,0.05945790106483619
1.964,0.025762850391155005
1.968,0.013347800334855876
1.972,0.009779630645019998
1.976,-0.01623434520156063
1.98,-0.008739250902697199
1.984,0.032609505181642656
1.988,0.03608145176919987
1.992,-0.03909351026655946
1.996,-0.0018482707972890672
2.0,0.02146098714157161
2.004,-0.0006338734508539307
2.008,0.012166247026243526
2.012,0.012833082844720378
2.016,0.037315778507773414
2.02,-0.002599355732675456
2.024,0.0234244138272387
2.028,0.016389586525302695
2.032,0.02066167196929681
2.036,0.026606453827303603
2.04,0.05168143984547981
2.044,0.004265240956279032
2.048,0.01775877905833198
2.052,0.020354704122569026
2.056,0.081706566398052
2.06,0.039915811954668264
2.064,0.006048430826491376
2.068,0.031309807350082514
2.072,0.12827477372072604
2.076,0.050469016951345265
2.08,0.0915115498618683
2.084,0.15253238961142696
2.088,0.09485926470587966
2.092,0.14632654132171435
2.096,0.1386289063965688
2.1,0.18197393863469882
2.104,0.1487157687712273
2.108,0.15327169472190402
2.112,0.19141681040066502
2.116,0.20645847878289467
2.12,0.23507734633700328
2.124,0.2676607938438579
2.128,0.2366510532922257
2.132,0.23676749652885018
2.136,0.26687076309407304
2.14,0.24164782105850757
2.144,0.2438893049581103
2.148,0.1802557841187803
2.152,0.28043784873788913
2.156,0.2506201243158231
2.16,0.23843898500746064
2.164,0.2104115035948552
2.168,0.23905203998766375
2.172,0.2307059368427728
2.176,0.20334809482216742
2.18,0.15574192187428318
2.184,0.14239868127787192
2.188,0.2066212466005825
2.192,0.10601221996876192
2.196,0.14022585192246848
2.2,0.10633412132879094
2.204,0.12523365112584456
2.208,0.10213646485169604
2.212,0.081517052408218
2.216,0.10254710536140099
2.22,0.13282054241195923
2.224,0.0629214008082202
2.228,0.02278950819752257
2.232,0.08204723816765443
2.236,0.06753087002357183
2.24,-0.007378158890002033
2.244,0.02975670574670598
2.248,-0.0393677209352975
2.2520000000000002,0.025357025741977218
2.2560000000000002,0.03568338301595436
2.2600000000000002,0.016460464979146744
2.2640000000000002,-0.002132048631328452
2.2680000000000002,-0.004764662502618849
2.2720000000000002,0.019811550128688685
2.2760000000000002,0.036976275496801714
2.2800000000000002,-0.018557081384094953
2.2840000000000003,-0.005767304397365962
2.2880000000000003,0.02226697773097609
2.2920000000000003,-0.03640789896920995
2.2960000000000003,0.007461317693478988
2.3000000000000003,0.00660149811863223
2.3040000000000003,0.02623505433859554
2.308,-0.003312459240901223
2.312,0.06896749046966111
2.316,-0.01684157733231712
2.32,0.0394605203143506
2.324,-0.01891918909120678
2.328,0.024514471803875865
2.332,-0.05013602966350123
2.336,-0.005256439007176708
2.34,-0.0028050109059409036
2.344,0.011239899897855983
2.348,-0.05169727807822549
2.352,0.0006189887152807899
2.356,-0.013135119003287034
2.36,-0.03804411083853925
2.364,0.011407239420879275
2.368,-0.015356818457769112
2.372,0.01774592183069713
2.376,0.04230893652296421
2.38,-0.012632675842128554
2.384,0.005292226822809927
2.388,0.03104038440213845
2.392,0.03555141999965712
2.396,0.02758745248617525
2.4,0.004840830622237559
2.404,-0.04060208824454221
2.408,-0.004438938669834296
2.412,0.01955583795272317
2.416,0.010117701810992145
2.42,-0.025630258146412937
2.424,-0.020021104133689058
2.428,-0.029822906034278868
2.432,-0.00594975769670752
2.436,-0.03701017518879169
2.44,-0.0054306670784393975
2.444,-0.03828996365198336
2.448,-0.04323544910199825
2.452,-0.02716326161050962
2.456,-0.0310072289611239
2.46,0.00986292140818846
2.464,-0.029028300810763352
2.468,0.03763412992172746
2.472,-0.021547411998472925
2.476,0.0199495485095421
2.48,-0.06973863549450562
2.484,-0.0020331697010722545
2.488,0.004786599470870468
2.492,-0.014885098353278045
2.496,-0.030463368838897536
2.5,0.004413604517308501
2.504,-0.007248020657148968
2.508,0.006746321444116854
2.512,-0.060137089651235764
2.516,-0.03941152370737852
2.52,-0.016033928751739493
2.524,0.027888544273775417
2.528,-0.058215506563750255
2.532,-0.02218572262088951
2.536,0.001219251924899605
2.54,-0.021211878526931842
2.544,-0.005666212841105085
2.548,-0.017844591238979527
2.552,-0.02557043522302342
2.556,-0.054439664590586266
2.56,-0.048414822958032365
2.564,-0.01981277458255457
2.568,-0.005450105511061374
2.572,-0.04063167314372431
2.576,0.003844510004859001
2.58,-0.042874683075816086
2.584,-0.09549933521084918
2.588,-0.007560551696499977
2.592,-0.012445497719111307
2.596,-0.00733486265225582
2.6,-0.03761482984118344
2.604,-0.0007031320598691465
2.608,-0.010205342740247366
2.612,-0.03381065418014189
2.616,-0.04773353109950121
2.62,-0.056757610139973456
2.624,-0.005940677429628564
2.628,-0.09532304409588853
2.632,-0.06192714752788665
2.636,-0.007017881986755452
2.64,0.01735102507584181
2.644,-0.014415514473694555
2.648,-0.04507766506659354
2.652,-0.011391538251226912
2.656,0.03988373343464088
2.66,-0.04265244705650222
2.664,-0.0699866596114016
2.668,0.013291309878847836
2.672,-0.04966170196695711
2.676,-0.016143837946521945
2.68,0.033997315113463863
2.684,-0.050649417559323825
2.688,-0.03755672220771865
2.692,-0.03842350460532894
2.696,-0.044244375630459146
2.7,0.03451951297257346
2.704,-0.007315991477209344
2.708,-0.04515194322905012
2.712,-0.0441353704460993
2.716,-0.04426536395363742
2.72,0.02231569044158748
2.724,-0.06311210631049974
2.728,-0.013032723551230401
2.732,-0.057480059303586774
2.736,-0.03976849602912437
2.74,-0.00813069037609624
2.744,-0.052481014085224334
2.748,-0.029109286632615562
2.7520000000000002,0.005230965916281905
2.7560000000000002,-0.013491657801117423
2.7600000000000002,-0.004029294366405242
2.7640000000000002,-0.054589852454110493
2.7680000000000002,-0.04591381328412082
2.7720000000000002,-0.0031045358047109093
2.7760000000000002,0.026522467621447658
2.7800000000000002,-0.04989207773279687
2.7840000000000003,-0.021371837146730046
2.7880000000000003,0.061769202805307635
2.7920000000000003,-0.05253727905467695
2.7960000000000003,-0.045323234440991636
2.8000000000000003,-0.02583232661562537
2.8040000000000003,-0.021216889063860815
2.8080000000000003,-0.06963345329459439
2.8120000000000003,-0.03812163027904366
2.816,-0.06810111639092221
2.82,-0.01630317005302806
2.824,-0.06940654845332561
2.828,-0.07489195183176477
2.832,-0.03643883014149903
2.836,0.024677651446709976
2.84,-0.0042540762989892325
2.844,0.02857803619702658
2.848,-0.050210061578886564
2.852,0.002769382156260578
2.856,0.09831724893625848
2.86,0.007441998983799297
2.864,0.042893284651980244
2.868,0.015354319258134817
2.872,0.02056375416559503
2.876,0.046140362767207205
2.88,0.06122551462471128
2.884,0.08273100584125499
2.888,0.11888002249695798
2.892,0.0261546116375569
2.896,0.07104877859504398
2.9,0.07051914108715318
2.904,0.019447421184082693
2.908,0.02283185386441011
2.912,-0.01830081874192017
2.916,-0.0056628696444852335
2.92,-0.017054760954069312
2.924,0.013856625141609777
2.928,-0.02897530467099737
2.932,-0.07384317694951337
2.936,-0.015555099359109396
2.94,-0.008322324286526612
2.944,-0.0504623994025245
2.948,-0.006022862466010345
2.952,-0.01810792132968431
2.956,-0.00845329020877219
2.96,-0.009546788947150497
2.964,-0.04249165029702645
2.968,-0.028135735540761535
2.972,0.016356328452360964
2.976,-0.07284640799655856
2.98,-0.0700271771370426
2.984,-0.04395147954706148
2.988,-0.020490103393225347
2.992,-0.0455392422119828
2.996,-0.028872823132877885
3.0,-0.03299156676519616
3.004,-0.06104476531355206
3.008,-0.05775701943681372
3.012,-0.027952750086328526
3.016,-0.02950246224162848
3.02,-0.06452292125720463
3.024,-0.08150026756278232
3.028,-0.08653469789660873
3.032,-0.13406528165216353
3.036,-0.11005627770890823
3.04,-0.026465168701261664
3.044,0.07274686235340833
3.048,0.31733649962063876
3.052,0.5350162371675898
3.056,0.7843211809644857
3.06,0.9348604334849386
3.064,0.9062641587063386
3.068,0.7891591840502915
3.072,0.4696880548684346
3.076,0.22334127737755968
3.08,-0.025165910018717617
3.084,-0.09532083157617098
3.088,-0.19760380711772443
3.092,-0.23044948228040438
3.096,-0.17107705527591283
3.1,-0.1730926032620085
3.104,-0.10235859222201282
3.108,-0.028458540118747377
3.112,-0.02435844347627599
3.116,-0.007374686506498335
3.12,-0.04284711009599534
3.124,-0.012391989875465446
3.128,-0.06276249990023651
3.132,-0.050225277489467625
3.136,-0.04568037835074015
3.14,-0.045221078345351176
3.144,-0.06317553307074986
3.148,-0.0810279778994859
3.152,-0.041516013937571275
3.156,0.006618991000424783
3.16,-0.03908954470153906
3.164,0.006349987368662886
3.168,-0.025254138134338633
3.172,0.010172320483848453
3.176,-0.020049015548473798
3.18,-0.029871897040705843
3.184,-0.01067619160417298
3.188,0.0013895195778588915
3.192,-0.037687677058321795
3.196,-0.06566424655453784
3.2,-0.004246226372495679
3.204,-0.0045157299512662875
3.208,-0.014828737547580994
3.212,-0.0756778046321833
3.216,-0.007565755146189946
3.22,6.012116062976622e-05
3.224,-0.01620045875651768
3.228,0.026102572330653606
3.232,-0.011185451147618302
3.236,-0.010885019296175559
3.24,0.023894586001112217
3.244,-0.06351356316441309
3.248,0.006092643886815345
3.2520000000000002,0.052116627039848915
3.2560000000000002,0.052464408211877624
3.2600000000000002,0.051397408647588474
3.2640000000000002,0.04971724977168188
3.2680000000000002,0.10523789770175579
3.2720000000000002,0.03659879191347701
3.2760000000000002,0.13162152657548734
3.2800000000000002,0.06018956171783496
3.2840000000000003,0.16495707090176603
3.2880000000000003,0.12560648626992454
3.2920000000000003,0.16435364829424132
3.2960000000000003,0.1082436510114301
3.3000000000000003,0.1576449074711422
3.3040000000000003,0.1739921608679229
3.3080000000000003,0.19293157055550372
3.3120000000000003,0.16511332436403364
3.3160000000000003,0.18971339418952227
3.3200000000000003,0.18653761203534702
3.3240000000000003,0.19955750554310317
3.3280000000000003,0.22117230706635277
3.332,0.16453004367428456
3.336,0.20478819589302644
3.34,0.15971083202462255
3.344,0.22187653525678983
3.348,0.1316686326395644
3.352,0.18691804462054773
3.356,0.13297772603333685
3.36,0.17093877469167956
3.364,0.12057928100603607
3.368,0.16193794623494215
3.372,0.11286558111844704
3.376,0.0613764314906161
3.38,0.08413316781578452
3.384,0.038808868952374134
3.388,0.04725544401435545
3.392,0.03509777801952159
3.396,0.027542085481764664
3.4,0.013415703129790317
3.404,-0.020248279072830992
3.408,0.0373425168307522
3.412,0.00658893734150208
3.416,-0.04980156736228611
3.42,-0.010564128633852692
3.424,-0.035814141148373876
3.428,-0.03275222136966804
3.432,-0.020459094297199047
3.436,0.0020403064645153624
3.44,-0.015661280011804564
3.444,-0.0518259765447974
3.448,-0.0684057635608798
3.452,-0.01190989872013511
3.456,-0.017205912376621946
3.46,-0.049055639815930106
3.464,-0.031861524168868165
3.468,-0.06450224521178588
3.472,-0.0406438947658484
3.476,-0.047620254585319446
3.48,-0.054266890528372774
3.484,0.0019289235205065675
3.488,-0.0030624493644944607
3.492,-0.006323611038787202
3.496,-0.04730312647239386
3.5,-0.0083408454765262
3.504,-0.06022419039372152
3.508,-0.02578848504676655
3.512,-0.040725726475544274
3.516,-0.012118124653684444
3.52,-0.06392578958123939
3.524,-0.04449597388711711
3.528,-0.06254605967776429
3.532,-0.04074666764229233
3.536,-0.03243033060494542
3.54,-0.0394884818612064
3.544,-0.07617679327271068
3.548,-0.0033368022594828448
3.552,-0.04540368799735263
3.556,0.011918364861408882
3.56,-0.029258649130631982
3.564,-0.014306409840021544
3.568,-0.022923733482534507
3.572,-0.02816821356782027
3.576,-0.022151715030026716
3.58,-0.039405733610980376
3.584,-0.042153681385822137
3.588,0.0011195096121363844
3.592,-0.05399228165403319
3.596,0.00037034412572117814
3.6,-0.03277980737335799
3.604,-0.01854213935643007
3.608,-0.0015768873400661548
3.612,-0.04985396336155194
3.616,-0.05848754439672128
3.62,-0.0453709100569297
3.624,-0.020516903976285195
3.628,-0.01721771519115522
3.632,-0.03356340230863764
3.636,-0.039801957299137034
3.64,-0.026243324028637747
3.644,-0.0558222826894368
3.648,-0.03614558207526708
3.652,-0.02911371166368624
3.656,-0.03433941614273764
3.66,-0.07100563877202666
3.664,-0.0200006976844045
3.668,-0.019839977749625745
3.672,-0.0766596276139836
3.676,-0.034486718770021935
3.68,-0.09054968199437566
3.684,-0.01991820697781392
3.688,-0.035156970422176914
3.692,-0.01850752004798572
3.696,-0.06459171179143383
3.7,-0.04895754034206957
3.704,0.01355107584617211
3.708,-0.008074620767699273
3.712,-0.020583228070723124
3.716,-0.05529755002282256
3.72,-0.02228428955582532
3.724,-0.004998004800662193
3.728,-0.02318283704164792
3.732,-0.010656059183944157
3.736,-0.018194630776257943
3.74,-0.021719053688303395
3.744,-0.050712381050288205
3.748,-0.01054020135506676
3.7520000000000002,-0.023257967625705703
3.7560000000000002,-0.038799051581756984
3.7600000000000002,-0.01963576105927877
3.7640000000000002,-0.005032933200194434
3.7680000000000002,-0.0027307995888531805
3.7720000000000002,-0.012987301065457606
3.7760000000000002,-0.020747208824485535
3.7800000000000002,-0.026758414230672593
3.7840000000000003,-0.0862805669577921
3.7880000000000003,-0.052187730151324
3.7920000000000003,-0.041832315691741964
3.7960000000000003,-0.03350236448594484
3.8000000000000003,-0.012069941103637596
3.8040000000000003,-0.02164168338118425
3.8080000000000003,-0.040802470003379596
3.8120000000000003,-0.06069170067282508
3.8160000000000003,-0.04377365164510074
3.8200000000000003,-0.039706828970999385
3.8240000000000003,0.00740723212650006
3.8280000000000003,0.031054815837527817
3.8320000000000003,-0.0451755377914762
3.8360000000000003,-0.013056866389085198
3.84,-0.0209479887027674
3.844,-0.007830955750284668
3.848,-0.08991675401335031
3.852,-0.03834995495540657
3.856,0.004421215919783419
3.86,-0.02544965209156931
3.864,-0.06563639012781203
3.868,-0.027478152801865875
3.872,-0.03727817342682274
3.876,-0.03124795337559133
3.88,-0.050560084358965814
3.884,-0.04217999333206065
3.888,-0.027953302026591503
3.892,-0.04439121359805402
3.896,-0.03589072590611503
3.9,-0.023849318653250164
3.904,0.0022801084069557984
3.908,0.01590590507211496
3.912,-0.041262565443537236
3.916,-0.058233257260181664
3.92,-0.026186104744842606
3.924,0.003471196952706774
3.928,-0.023379256824594297
3.932,-0.05797526465531411
3.936,-0.013293159483496717
3.94,-0.002642852047796223
3.944,-0.001455096033628249
3.948,0.029294694226354265
3.952,-0.004438853425183537
3.956,-0.044399191805694835
3.96,-0.02438197670686211
3.964,-0.09850966681795895
3.968,-0.029191256856126942
3.972,0.0074505853358553635
3.976,-0.043058191560893445
3.98,-0.04247819550128208
3.984,0.0029446438056462444
3.988,-0.02540973968664729
3.992,-0.01763727696984495
3.996,-0.07541414335588005
4.0,-0.020357955528865216
4.0040000000000004,0.05550133580331406
4.008,-0.0035823960240844235
4.0120000000000005,-0.01948391840811494
4.016,-0.007585345121564344
4.0200000000000005,0.01729110344413014
4.024,0.04241722842546726
4.0280000000000005,0.04360006574159793
4.032,0.020727737406033772
4.0360000000000005,0.04941207641876949
4.04,0.06060549456251873
4.0440000000000005,0.0071116826991780985
4.048,0.057548470413152045
4.0520000000000005,0.07029942714575144
4.056,0.03880726134715486
4.0600000000000005,0.0638356290625424
4.064,0.050790907084844614
4.0680000000000005,0.024156051429855066
4.072,0.0036691925267469568
4.0760000000000005,0.013870570305602799
4.08,-0.02468829987049014
4.0840000000000005,-0.02830576730470446
4.088,0.027112122822997027
4.0920000000000005,0.011310238972490453
4.096,0.0388541892802875
4.1,-0.02643395100406547
4.104,-0.019841968447442643
4.108,-0.04461233157612252
4.112,-0.006202677205886544
4.116,-0.04473972233175551
4.12,0.01219001370719264
4.124,0.01682923395271975
4.128,-0.029805276584308642
4.132,0.002853525394383362
4.136,-0.052422303253571285
4.14,0.00781974888045859
4.144,-0.03440340268013619
4.148,-0.007335019045822715
4.152,0.00271318480201029
4.156,-0.038571573507325645
4.16,-0.054458162611106975
4.164,-0.06793966763160368
4.168,-0.03386859832487334
4.172,-0.03288396329277744
4.176,-0.021936826094116436
4.18,-0.04537724863613898
4.184,-0.04027816653150814
4.188,-0.05258590669256527
4.192,-0.04731560422871374
4.196,-0.08520166093054181
4.2,-0.07743963776487701
4.204,-0.054329927470615186
4.208,0.021095932439041648
4.212,0.1558574770873396
4.216,0.42665406987247095
4.22,0.6696884062219777
4.224,0.8535435168344665
4.228,0.9820084139402401
4.232,0.9322984786774119
4.236,0.734541803702696
4.24,0.411543036979024
4.244,0.14859317944969921
4.248,-0.07693770319058331
4.252,-0.12040670311600365
4.256,-0.21509580503442538
4.26,-0.18222533478605468
4.264,-0.19251930522403632
4.268,-0.15129363793114334
4.272,-0.07535989793018959
4.276,-0.042885862794930736
4.28,-0.013251635391169008
4.284,-0.007450251351371784
4.288,0.00030524135713359216
4.292,-0.054475553079393245
4.296,-0.07397544885306391
4.3,-0.021081575803941478
4.304,-0.007995235452661204
4.308,-0.021406730548167774
4.312,0.0004109911220982025
4.316,0.03336526113243738
4.32,-0.022493287238308
4.324,-0.0265657572964388
4.328,-0.006928092817221614
4.332,0.00024867060801561994
4.336,-0.010558313519851611
4.34,0.009140727716701977
4.344,-0.040636091791437304
4.348,0.03452989859509166
4.352,-0.03906722783528207
4.356,-0.000750718073098603
4.36,-0.014536067473104035
4.364,-0.015651075433557312
4.368,-0.04499403028822602
4.372,0.018036657375926836
4.376,-0.011309061441880857
4.38,0.01695946879560082
4.384,-0.01987901691591852
4.388,-0.009681118632259626
4.392,0.027937732823047654
4.396,0.04514598591362037
4.4,0.05122525178315537
4.404,0.022003217601750474
4.408,0.019715110453462175
4.412,0.04090893526720394
4.416,0.0488695575266598
4.42,0.1206977858282219
4.424,0.06614142602536437
4.428,0.073966284619499
4.432,0.10120111246176094
4.436,0.1378702792636629
4.44,0.15514671407910166
4.444,0.14545076518818806
4.448,0.19130346696438835
4.452,0.19221965782593292
4.456,0.20246737817611132
4.46,0.16500626979089808
4.464,0.17035210392069303
4.468,0.20748982197259072
4.472,0.23497849581663807
4.476,0.21156428914448633
4.48,0.21971930688710592
4.484,0.26017048786495706
4.488,0.23128481185032687
4.492,0.1856831618402579
4.496,0.2090307425394877
4.5,0.22568907958195444
4.5040000000000004,0.22847392657450855
4.508,0.21694651878653112
4.5120000000000005,0.1986196895270866
4.516,0.19394640010537847
4.5200000000000005,0.21128380973342267
4.524,0.14708835696959194
4.5280000000000005,0.10414763570822202
4.532,0.152103005133469
4.5360000000000005,0.1502740520381595
4.54,0.08932100948456696
4.5440000000000005,0.11381020171967575
4.548,0.11150708522474269
4.5520000000000005,0.0970968756722185
4.556,0.09783415953668637
4.5600000000000005,0.08180150729470559
4.564,0.017790910974584455
4.5680000000000005,0.04783626500539359
4.572,0.05509612145351597
4.5760000000000005,0.02899177851963835
4.58,0.0016177537603807128
4.5840000000000005,0.04854366330989615
4.588,0.03975278697337162
4.5920000000000005,0.035138913926708225
4.596,0.043920286333057106
4.6000000000000005,-0.04812540740852386
4.604,0.03222841641166149
4.6080000000000005,-0.024098630823330778
4.612,-0.03526226398387732
4.616,0.007480607303842139
4.62,0.06012902815136725
4.624,0.0028660842915093077
4.628,-0.008260541587575882
4.632,0.03685631021679636
4.636,-0.0042340736939737705
4.64,0.0035635535019487036
4.644,0.004585017095617258
4.648,0.011367669445829983
4.652,0.032800254784257916
4.656,0.051181405643771716
4.66,0.008249515318580649
4.664,0.04125890834542819
4.668,0.023833736593330282
4.672,0.016511957155894534
4.676,0.021827984954846412
4.68,-0.024049630743746418
4.684,-0.02103509452369008
4.688,0.007457812347289053
4.692,0.0031510669604261033
4.696,0.06495424014603203
4.7,0.023587102692393867
4.704,-0.009996646547853781
4.708,-0.029146463673499785
4.712,-0.009380129915704102
4.716,0.03657955808570314
4.72,0.0363689363994909
4.724,0.016035201953962325
4.728,0.04491354668757527
4.732,0.03947224640103897
4.736,0.008523043939020217
4.74,-0.0207742717431846
4.744,0.029862111410941562
4.748,0.014449177861042335
4.752,0.007880633814430858
4.756,0.023531021645446175
4.76,-0.007456557384910001
4.764,-0.02993666311993091
4.768,0.017075531930585836
4.772,-0.015506731943258963
4.776,0.009889075343249641
4.78,0.016722579842820932
4.784,0.014600270865092024
4.788,-0.04060184544981568
4.792,0.043041405110215286
4.796,-0.010769588529484581
4.8,0.04144789258325931
4.804,0.021715742053916316
4.808,0.009609592314879607
4.812,-0.009156950978777972
4.816,0.007773975665983905
4.82,0.016480435877045167
4.824,0.025417630602678713
4.828,-0.006828108351145936
4.832,-0.022256825058277224
4.836,-0.009942581948414096
4.84,-0.013823077153781858
4.844,0.019199199358103623
4.848,0.02880551042728554
4.852,0.05935874677431134
4.856,0.003356784318318061
4.86,0.015002648578221735
4.864,0.012057430819150106
4.868,0.03426047891573207
4.872,0.030073066172853262
4.876,-0.012580941043752994
4.88,0.0004201758788587497
4.884,0.01953610787848175
4.888,0.019374916170131
4.892,0.014348679101721959
4.896,-0.016682345643047193
4.9,-0.0015357283233884654
4.904,0.021699169931037005
4.908,-0.009392355020646913
4.912,0.036485375257568294
4.916,0.01607325924783014
4.92,-0.0075201715182686875
4.924,-0.00045456927115439597
4.928,-0.0008238360209489922
4.932,-0.008875181379973774
4.936,0.025313256550789746
4.94,0.01522384581677945
4.944,0.016839051482992112
4.948,-0.016925950577066917
4.952,0.03512995296247779
4.956,0.04165843107057072
4.96,0.018171909264558715
4.964,0.013300038035185275
4.968,0.07615480875288382
4.972,0.06506713922615504
4.976,0.028989580095918586
4.98,-0.008613747582400105
4.984,0.03667947373617066
4.988,0.02658098437238448
4.992,0.06611345485064384
4.996,0.03598443390848275
5.0,-0.004974134191681412
5.0040000000000004,0.047843547475931406
5.008,0.022700907882585174
5.0120000000000005,0.03254855281058644
5.016,-0.005495539517957518
5.0200000000000005,0.031161528520081826
5.024,0.015113633272819876
5.0280000000000005,0.021807083929049398
5.032,-0.02327510636736569
5.0360000000000005,0.030660697987091805
5.04,0.03617313608085346
5.0440000000000005,-0.029468716132143018
5.048,0.04596969960290544
5.0520000000000005,0.01251953570778706
5.056,0.005171736878933443
5.0600000000000005,-0.003694690187812065
5.064,0.0854410510141387
5.0680000000000005,0.028480044398274527
5.072,0.024758251255755738
5.0760000000000005,0.022720654623058167
5.08,0.06471459552967984
5.0840000000000005,-0.015617150218478343
5.088,0.085455522670841
5.0920000000000005,0.052066678622645336
5.096,-0.005761320868490478
5.1000000000000005,0.048261302706536634
5.104,0.04526110683311997
5.1080000000000005,0.05170364796758052
5.112,0.01687571716537706
5.1160000000000005,0.06180381827347792
5.12,0.024763101978139253
5.124,0.023369488449494952
5.128,0.01310301587578328
5.132,0.03856148092193888
5.136,0.006548990403757414
5.14,0.023484114797256116
5.144,0.05413504429049467
5.148,0.015590882788376722
5.152,0.017913403727808985
5.156,0.03333059881222287
5.16,0.0263102570437438
5.164,0.057784090271703586
5.168,0.05968376321771897
5.172,0.06340944896882486
5.176,0.04815363042803901
5.18,0.06891887923344754
5.184,0.040592865918016294
5.188,0.0422495758702726
5.192,0.055011976454218986
5.196,0.039214312550363624
5.2,0.04307510552820935
5.204,0.04934457000794806
5.208,0.08593497539546485
5.212,0.08606119253281175
5.216,0.07179225975053752
5.22,0.06428325589299777
5.224,0.06087866510993052
5.228,0.0285986775822552
5.232,0.06079361546573435
5.236,0.11727354969697226
5.24,0.14436098211339676
5.244,0.08366902868874489
5.248,0.07387580135855723
5.252,0.11765267449758414
5.256,0.11456076415764684
5.26,0.10730017898770679
5.264,0.09420440796216294
5.268,0.12511827380201201
5.272,0.07213896175770834
5.276,0.1054286638167823
5.28,0.07764376964887756
5.284,0.08889792978623998
5.288,0.0822915010739203
5.292,0.08604381418635756
5.296,0.05997966699925597
5.3,0.08924716747106418
5.304,0.02320914913661999
5.308,0.0599825133591629
5.312,0.011699220422862672
5.316,0.016729598088529505
5.32,0.0496755936503248
5.324,-0.009998962730480704
5.328,0.028064050401578253
5.332,0.049348945391687785
5.336,0.04268656800320056
5.34,0.06302236751508443
5.344,0.06903006790533002
5.348,0.01605387050211505
5.352,0.029823075612442428
5.356,0.0012795272602110774
5.36,0.026862781379398355
5.364,0.0421731946606778
5.368,0.032368741478865745
5.372,0.04934286832458694
5.376,0.049995622077038504
5.38,0.042973789104445555
5.384,0.08769509289269659
5.388,0.061957308042627876
5.392,0.051211527582781545
5.396,0.015408724121979073
5.4,0.009409561511101531
5.404,-0.04716017220707124
5.408,-0.049392406087425775
5.412,-0.0036632244011780748
5.416,0.10490832725073217
5.42,0.28886578073939784
5.424,0.47847566488882176
5.428,0.7676414100972
5.432,0.9971770138822608
5.436,1.031753631763735
5.44,0.9626801738023315
5.444,0.7020073822436448
5.448,0.5009401713447111
5.452,0.21556947192976297
5.456,0.01687691791363191
5.46,-0.07777378493130867
5.464,-0.14085588664647705
5.468,-0.17894003616717863
5.472,-0.07009531594580429
5.476,-0.03865810855436975
5.48,-0.06632136776959785
5.484,0.07033028711663146
5.488,0.03353350244894693
5.492,0.07005763723400334
5.496,0.07877228142016396
5.5,0.059555036028568466
5.5040000000000004,0.06272154172774648
5.508,0.07665251155624761
5.5120000000000005,0.02040642041893754
5.516,0.033208156746127475
5.5200000000000005,0.018958045268394858
5.524,0.036842176446521276
5.5280000000000005,0.02178567287650475
5.532,0.033926121081289055
5.5360000000000005,0.06029960905415137
5.54,0.047241399972509146
5.5440000000000005,0.05762735073428381
5.548,0.04513630111719174
5.5520000000000005,0.045552608511384735
5.556,0.012157600860869325
5.5600000000000005,0.03022789711165529
5.564,0.04817823318450951
5.5680000000000005,0.0988323748837252
5.572,0.11337879951675467
5.5760000000000005,0.0635707440049302
5.58,0.05389235606409628
5.5840000000000005,0.025319065090999907
5.588,0.0649081228734453
5.5920000000000005,0.06693792126849891
5.596,0.08837171970374669
5.6000000000000005,0.08300401673861693
5.604,0.08674092357557672
5.6080000000000005,0.05098412057707567
5.612,0.12880627504120437
5.6160000000000005,0.09384925840780171
5.62,0.07121226914974121
5.6240000000000006,0.1190781327015718
5.628,0.06788747990981858
5.632,0.19437169026285497
5.636,0.1309916767718105
5.64,0.1434713654820041
5.644,0.16053807742684423
5.648,0.17132555656213153
5.652,0.2035880858448248
5.656,0.2313469474295078
5.66,0.21728411077266674
5.664,0.26222515186899886
5.668,0.24864689241846613
5.672,0.2384400693598539
5.676,0.2890795952232925
5.68,0.30097374358359924
5.684,0.270484303819197
5.688,0.32403163940005786
5.692,0.2389905115068909
5.696,0.2515310655682112
5.7,0.27579262796212767
5.704,0.32831963131675873
5.708,0.2683766130891127
5.712,0.23903667479544868
5.716,0.29154865381909795
5.72,0.2163601271046195
5.724,0.2321940047599524
5.728,0.2543830742247385
5.732,0.17466187508628217
5.736,0.2212905665204246
5.74,0.19957357181889715
5.744,0.17869269023759443
5.748,0.12468864312404712
5.752,0.16756071979163292
5.756,0.1209008620631523
5.76,0.13790433435474067
5.764,0.12282101640281523
5.768,0.14103626912382322
5.772,0.14945569520793447
5.776,0.07864814417543164
5.78,0.11438522602574613
5.784,0.062983098236752
5.788,0.0917046235918607
5.792,0.04511151012899335
5.796,0.02443135291291876
5.8,0.06660154471456503
5.804,0.04409271678612326
5.808,0.09044651952133864
5.812,0.04312241767249118
5.816,0.048498989431304027
5.82,0.03833016045533848
5.824,0.03082576998811299
5.828,0.002354789380485528
5.832,0.057736866588509614
5.836,0.04869361018030632
5.84,0.03127165677655535
5.844,0.039465280669863614
5.848,0.028641386811136697
5.852,0.0021770449775331685
5.856,0.0559333759362154
5.86,0.05360166881614367
5.864,0.057341877891076865
5.868,-0.00888873191038421
5.872,0.07033739004562799
5.876,0.005628987787543133
5.88,0.0369456442749756
5.884,0.0495359895247136
5.888,0.060792891759913995
5.892,-0.00934679981732743
5.896,-0.006181446846875136
5.9,0.032534188545761664
5.904,0.026337431713785747
5.908,0.06891932320079208
5.912,0.04224358650247664
5.916,-0.019720341550222356
5.92,0.02856377613050813
5.924,0.04733653727970223
5.928,0.036994361543015525
5.932,0.07186391165980976
5.936,0.0498417842823886
5.94,0.03325672042212878
5.944,0.04795530956956967
5.948,0.03430999891869127
5.952,3.8098996785786154e-05
5.956,0.03424950807973403
5.96,0.057523403124500855
5.964,0.0269166464527677
5.968,0.023390190336845775
5.972,0.0855764894108765
5.976,0.04004481174403909
5.98,0.02318615047571724
5.984,0.08927516940164269
5.988,0.007969994548860063
5.992,0.05885919493171923
5.996,0.002023783376577406
6.0,0.0671478684713335
6.0040000000000004,0.04313229084505579
6.008,0.0307692807593559
6.0120000000000005,0.025095376595796883
6.016,0.068550982546905
6.0200000000000005,0.028712047559621257
6.024,0.073772906903536
6.0280000000000005,0.08504800291089112
6.032,-0.01901247359227038
6.0360000000000005,0.04932366551851276
6.04,0.051343957701642545
6.0440000000000005,0.0436132196381242
6.048,0.036430137570298074
6.0520000000000005,0.03821103776173171
6.056,-0.0005359349594947355
6.0600000000000005,0.03375702362964488
6.064,-0.02976735902543191
6.0680000000000005,0.0043893387147252855
6.072,0.005030220340386776
6.0760000000000005,0.03236656014069203
6.08,0.06172106935544971
6.0840000000000005,0.03660424599954663
6.088,0.07124968130101958
6.0920000000000005,0.038319166586067564
6.096,0.04533696869611163
6.1000000000000005,0.05143744249966604
6.104,0.05197480764230066
6.1080000000000005,0.02808906372015947
6.112,-0.012778643224909167
6.1160000000000005,0.054386155615747056
6.12,0.06608742743510607
6.1240000000000006,0.09703140120053969
6.128,0.005485288183805396
6.132000000000001,0.03135564286028556
6.136,0.010170754224788782
6.140000000000001,0.034069977846065316
6.144,0.004491046027789082
6.148,0.05654425598401157
6.152,-3.954074157374449e-05
6.156,0.03769285741915855
6.16,0.06483911029663462
6.164,0.02494303088886213
6.168,0.004788986118652916
6.172,-0.008281653784495052
6.176,0.03679582277789335
6.18,-0.020674411289779076
6.184,0.0234845523931936
6.188,0.03156696000725571
6.192,0.06864300360695183
6.196,0.014896584148959719
6.2,0.061895408951555396
6.204,0.008700460783499262
6.208,0.03274696652780454
6.212,0.030999774770936184
6.216,0.03505266093589121
6.22,0.021706589113604218
6.224,0.04172289107484497
6.228,0.043614053732531424
6.232,0.05344914293675024
6.236,0.07196124369930745
6.24,0.0586998651722619
6.244,0.007733622288134475
6.248,0.04179111964540927
6.252,0.029458556142086617
6.256,0.030203259005079697
6.26,0.04354987201641506
6.264,0.012246987054950349
6.268,-0.018291100455042314
6.272,0.08234029459612058
6.276,0.08743598489314065
6.28,0.018280502581173773
6.284,0.035481146338659876
6.288,0.049711358906639636
6.292,0.04152340281251968
6.296,0.024166913318096027
6.3,0.04859268351590367
6.304,0.017818388231749083
6.308,0.04665091507591887
6.312,0.04737815517991086
6.316,0.03559860731747548
6.32,0.04539337325213941
6.324,0.004602120687530537
6.328,0.019126328882843265
6.332,0.0032795439771451697
6.336,0.05966423794906348
6.34,0.04284522056381761
6.344,-0.0005588924821494472
6.348,0.008575814967648247
6.352,0.04385557787283008
6.356,0.004463690839193089
6.36,-0.005451558925779351
6.364,0.00930715348600868
6.368,0.028827562477777968
6.372,-8.368761326127058e-05
6.376,0.04374247674157263
6.38,-0.015659583177447693
6.384,0.06478769297338816
6.388,0.06198717360663177
6.392,0.06131348697563792
6.396,0.05064536800492686
6.4,0.03450720767357396
6.404,0.04057705862719186
6.408,0.046745861949353096
6.412,0.02651282478126414
6.416,0.04662102545925373
6.42,0.061639483123431454
6.424,0.036228592371737006
6.428,0.013090588160822425
6.432,0.05006673081182192
6.436,0.06114157192218193
6.44,0.005416370619598002
6.444,0.03150294375025849
6.448,0.009735807209109184
6.452,0.06469683995459984
6.456,0.0396886136668558
6.46,0.010521322132778767
6.464,0.04059433555787918
6.468,0.05702397429073847
6.472,0.09339102195021783
6.476,0.06383869068764747
6.48,0.11061798449878199
6.484,0.10836391200121158
6.488,0.11970696236166041
6.492,0.07926997466077446
6.496,0.08629973983756421
6.5,0.05483298838807667
6.5040000000000004,0.10019240929024904
6.508,0.10182872754640009
6.5120000000000005,0.07110062224599133
6.516,0.04874297046653449
6.5200000000000005,0.13587449217751887
6.524,0.043070838525983854
6.5280000000000005,0.044972950993395926
6.532,0.04242253526040417
6.5360000000000005,0.043809006747642903
6.54,0.07165351308790432
6.5440000000000005,-0.0014922004698593797
6.548,0.01720752817624107
6.5520000000000005,-0.0195173873636252
6.556,0.050301037660620516
6.5600000000000005,-0.009019821086967864
6.564,-7.710266431142435e-05
6.5680000000000005,0.02193717181121204
6.572,0.034583626764036104
6.5760000000000005,0.06892906358563129
6.58,0.012883262723765184
6.5840000000000005,0.06053234111745991
6.588,0.02630634644156507
6.5920000000000005,0.06026540996187334
6.596,0.008898100954587778
6.6000000000000005,0.06641457960732566
6.604,0.01757268124450921
6.6080000000000005,-0.013139062573891566
6.612,-0.0034497008770865544
6.6160000000000005,0.02916441797235028
6.62,0.026739804940627984
6.6240000000000006,0.03657257253839871
6.628,-0.023951062439346783
6.632000000000001,-0.018148773715118555
6.636,0.04282389027320206
6.640000000000001,-0.06520456850138875
6.644,-0.10588676528697617
6.648000000000001,-0.04209788108613226
6.652,-0.013380432296742314
6.656000000000001,0.08198396308406172
6.66,0.3385561035492254
6.664,0.5569169337018468
6.668,0.7796580534827213
6.672,0.9586446327072086
6.676,0.953541178236873
6.68,0.8625054775068589
6.684,0.6647376389016203
6.688,0.36610538496665046
6.692,0.0916301514130023
6.696,-0.07326348527700811
6.7,-0.1706448831143877
6.704,-0.13116175528104246
6.708,-0.2015643164278296
6.712,-0.16733144286509932
6.716,-0.07137929900617955
6.72,-0.04435896321457919
6.724,-0.05951721254089333
6.728,-0.02417530176298626
6.732,0.007606620503946898
6.736,0.027911063734720562
6.74,0.026974872446795705
6.744,0.04743914868869851
6.748,0.02199020459782651
6.752,-0.05229102997541781
6.756,-0.0077283660276724255
6.76,0.028766279688093727
6.764,-0.002713226605558835
6.768,-0.009042193686194277
6.772,-0.03280907357857997
6.776,0.012486936807984161
6.78,-0.027753579726271405
6.784,-0.009221605364653902
6.788,-0.014319707682395565
6.792,0.02624484050442375
6.796,0.000215045911835683
6.8,-0.005277069942091903
6.804,0.0005336698152703778
6.808,0.02441904121749764
6.812,0.018413648955086827
6.816,0.018181583062651878
6.82,0.03469157136697504
6.824,0.009971346219632669
6.828,-0.056068440919733405
6.832,-0.010882464936234189
6.836,0.06124837898607412
6.84,0.06091476853798243
6.844,-0.0010035388465849775
6.848,0.030057330777445223
6.852,0.06892361864845462
6.856,0.07358123781147655
6.86,0.10962938175753711
6.864,0.05916000994083048
6.868,0.04119505122796797
6.872,0.11559829669180358
6.876,0.10768065981373963
6.88,0.10329572250254165
6.884,0.16681285584124983
6.888,0.15063411187240322
6.892,0.17990062133129853
6.896,0.1704280349690033
6.9,0.20910593770671546
6.904,0.18456008848607194
6.908,0.14075299284222198
6.912,0.2029821452984622
6.916,0.22354673002562095
6.92,0.19475487292553392
6.924,0.23836722279365824
6.928,0.1920469475298602
6.932,0.22246882696405762
6.936,0.23931449606662672
6.94,0.20514104118466217
6.944,0.2228930792700159
6.948,0.2016166169158706
6.952,0.22261572158315152
6.956,0.20063793879694997
6.96,0.2269326245007635
6.964,0.19483151185698525
6.968,0.22454356177693088
6.972,0.0864140414954529
6.976,0.15015553739010803
6.98,0.11983081797242083
6.984,0.14467249453873934
6.988,0.0693174384633034
6.992,0.09398527977374606
6.996,0.05749299527900155
7.0,0.0673402942881459
7.0040000000000004,0.0627731020792778
7.008,0.03231083764653207
7.0120000000000005,-0.012022886586032268
7.016,0.024263283402770078
7.0200000000000005,-0.0027394045857087393
7.024,-0.022640117605264472
7.0280000000000005,0.02975311667662046
7.032,-0.018232338705017972
7.0360000000000005,-0.010927656238195891
7.04,0.03796355318470751
7.0440000000000005,-0.020613318235459456
7.048,0.02262843395521342
7.0520000000000005,0.03484070047299805
7.056,0.005338802210281281
7.0600000000000005,-0.0362596737609158
7.064,-0.03570390732636113
7.0680000000000005,0.009829129358145774
7.072,0.017648272772201063
7.0760000000000005,0.018220979083666444
7.08,-0.015038146790059551
7.0840000000000005,-0.00047700863954568996
7.088,-0.006172049092424979
7.0920000000000005,-0.007960450747205887
7.096,0.006624843835520797
7.1000000000000005,-0.021742978246728703
7.104,-0.012504306251845187
7.1080000000000005,0.02407373631740662
7.112,-0.01991688595739324
7.1160000000000005,0.01813536528564192
7.12,-0.030395968334827467
7.1240000000000006,-0.04212500489631685
7.128,0.007796069581973
7.132000000000001,-0.006149392040801817
7.136,-0.0008619042214400643
7.140000000000001,-0.014937157320212382
7.144,-0.0482965798684758
7.148000000000001,0.018931472798862335
7.152,-0.016885640900285492
7.156000000000001,0.0004316845254134661
7.16,-0.04247921988249618
7.164000000000001,-0.005596126802172436
7.168,-0.022921251867610383
7.172,0.01629871805889561
7.176,-0.07835851071030359
7.18,-0.06661509838585855
7.184,0.022232433740119028
7.188,0.02391074621247464
7.192,-0.04028834345513161
7.196,-0.046822658621037114
7.2,-0.014308170860297661
7.204,-0.030508956818025377
7.208,0.018905500322393784
7.212,0.025469311005879736
7.216,-0.05636079639982197
7.22,-0.00393686738153398
7.224,-0.0113003341774391
7.228,-0.012077897725345378
7.232,-0.025970850026215755
7.236,-0.002517699363582853
7.24,-0.06347258085662114
7.244,-0.005082155846508157
7.248,-0.04401079739671178
7.252,-0.0495550094309493
7.256,-0.035408372703954236
7.26,-0.024958362039802368
7.264,-0.038261698380896526
7.268,-0.019662491741615624
7.272,0.03573888224782418
7.276,-0.028545281331626267
7.28,-0.018876500010866736
7.284,-7.213693326507675e-05
7.288,0.0032933940036152624
7.292,-0.0420898223968513
7.296,-0.043506823169862575
7.3,-0.03782422760820465
7.304,-0.025106150325549546
7.308,-0.038052844180976056
7.312,0.0014232170426122029
7.316,-0.0011080551830425847
7.32,-0.01125903261097657
7.324,-0.02735931202057036
7.328,-0.01839610421500535
7.332,-0.026944970042180865
7.336,-8.189855449235173e-05
7.34,-0.03900928733208028
7.344,-0.034225756552251935
7.348,-0.042248467987902036
7.352,-0.039532871050709815
7.356,-0.04878710788815868
7.36,-0.006625479887345978
7.364,-0.026239048157043057
7.368,-0.07080531389945577
7.372,0.04693071229377417
7.376,-0.09881974993970682
7.38,-0.030002763548585835
7.384,-0.035482182443754465
7.388,-0.02527057011717466
7.392,-0.049589394680961074
7.396,-0.004388765480508858
7.4,0.020055809570055053
7.404,-0.014393765534914161
7.408,-0.02358690354484224
7.412,-0.03661412919642669
7.416,-0.004675077119572303
7.42,-0.02972726917834471
7.424,-0.021473353781644545
7.428,-0.030467254770410998
7.432,-0.006621741585305135
7.436,-0.047450749158621394
7.44,-0.03653393904136085
7.444,-0.08010235581849261
7.448,0.005908205571557475
7.452,-0.009888701036176095
7.456,-0.03441028328944988
7.46,-0.041961741454672345
7.464,-0.07708714704157925
7.468,-0.028036914484671226
7.472,-0.009854941763136327
7.476,-0.05152961200361253
7.48,-0.05571529353502659
7.484,-0.02817199765447935
7.488,0.007899710631080463
7.492,-0.0324621677016106
7.496,-0.07015962542356896
7.5,-0.052475545630155405
7.5040000000000004,-0.07558281908887071
7.508,-0.019855855514075184
7.5120000000000005,-0.012442102455327026
7.516,-0.030519837041684997
7.5200000000000005,-0.060879167296484946
7.524,-0.015112912722855868
7.5280000000000005,-0.04030582259375164
7.532,-0.041156993585284914
7.5360000000000005,-0.03182202579972926
7.54,-0.016458559354240912
7.5440000000000005,-0.020483697850741854
7.548,-0.022511849768717337
7.5520000000000005,-0.06425614443785418
7.556,-0.014378567557781427
7.5600000000000005,-0.032174543573746536
7.564,0.003983330630561846
7.5680000000000005,-0.037431800616550034
7.572,-0.04039178589777923
7.5760000000000005,-0.030755974558671885
7.58,-0.07201053317693504
7.5840000000000005,0.021605339904861867
7.588,-0.09424579211191242
7.5920000000000005,-0.024015121004176708
7.596,-0.050083376182589984
7.6000000000000005,-0.016063947138493434
7.604,-0.018919335391285146
7.6080000000000005,-0.027224427393889333
7.612,-0.09082079892453745
7.6160000000000005,-0.05032595788585819
7.62,-0.07601283262887971
7.6240000000000006,-0.05347439294436399
7.628,-0.028382649229907155
7.632000000000001,0.012612531280779254
7.636,0.035173924159725846
7.640000000000001,-0.034636338002879026
7.644,-0.0008778274202326996
7.648000000000001,-0.027677183918941042
7.652,0.011733709115655267
7.656000000000001,0.02221092398469065
7.66,0.06453037848167095
7.664000000000001,-0.011602184204466168
7.668,0.10080380892528089
7.672000000000001,0.06952999802834263
7.676,0.02689567343423721
7.68,0.038202922251494284
7.684,0.027598780869603455
7.688,0.013754503097980333
7.692,-0.020047893902793844
7.696,-0.01937859607533698
7.7,0.02154735893699093
7.704,-0.03693950013560342
7.708,0.0039520199324031054
7.712,-0.020480117986669308
7.716,-0.03566065242965872
7.72,-0.009090953998450679
7.724,-0.0307553976933075
7.728,-0.02649568185885339
7.732,-0.10178394635164431
7.736,-0.050491037029668645
7.74,8.213223408626291e-05
7.744,-0.025061419841116844
7.748,-0.05962419064789479
7.752,-0.045616409095410385
7.756,0.010341353178587046
7.76,-0.04156615930175944
7.764,-0.06606760488107381
7.768,-0.1048212979569313
7.772,-0.06101496427900093
7.776,-0.05508365546140681
7.78,-0.04600023642543454
7.784,-0.029486655772400675
7.788,-0.06264469854393168
7.792,-0.050968328995935605
7.796,-0.06218552137586156
7.8,-0.024769828582479163
7.804,-0.045928391882433764
7.808,0.010081982298727858
7.812,-0.05725930043471802
7.816,-0.08789284167740968
7.82,-0.10597647755115658
7.824,-0.17088951486438522
7.828,-0.11381955798323416
7.832,0.012178648617396214
7.836,0.14625424421748737
7.84,0.37927758782140947
7.844,0.6747452545647158
7.848,0.857429389795785
7.852,0.9868315171492628
7.856,0.8479372651405545
7.86,0.6398619715610679
7.864,0.3904354474852142
7.868,0.16921160592551932
7.872,-0.047749295034577546
7.876,-0.16859065074248006
7.88,-0.19163916923737961
7.884,-0.25825263073222354
7.888,-0.16219986431020939
7.892,-0.1646351803397155
7.896,-0.09117895226364899
7.9,-0.04041680994460653
7.904,-0.029922968065654827
7.908,-0.06271601261007367
7.912,-0.11687686947101576
7.916,-0.03982085562393608
7.92,-0.033533236323895176
7.924,-0.06367817814503651
7.928,-0.05099272892103852
7.932,-0.050718296490879514
7.936,-0.06506030224624601
7.94,-0.036528260693732266
7.944,-0.07464915681731799
7.948,-0.04482468492841745
7.952,-0.02608571002832439
7.956,-0.03448462573720004
7.96,-0.0608346381677895
7.964,-0.008252439481864833
7.968,-0.03630047964199626
7.972,-0.028277595352796732
7.976,-0.03559029387172189
7.98,-0.044374967738077344
7.984,-0.0645752686120732
7.988,-0.06887150134106909
7.992,-6.531092537159083e-05
7.996,-0.05023765129591963
8.0,-0.035777815484785216
8.004,-0.02023325125236198
8.008000000000001,0.011857068492941294
8.012,-0.02166228198899736
8.016,-0.006503816953675233
8.02,-0.02991877268296212
8.024000000000001,0.001994131544083911
8.028,-0.008182421400290966
8.032,0.041584535529971746
8.036,0.024944209686798433
8.040000000000001,0.02274882888069898
8.044,0.030213395942236706
8.048,0.06355559942759355
8.052,0.08081262798530182
8.056000000000001,0.11980356384285812
8.06,0.05911007035898386
8.064,0.12264027423354676
8.068,0.06438677145810381
8.072000000000001,0.1416816478857963
8.076,0.15359615458762846
8.08,0.1216352011231942
8.084,0.14547587502584441
8.088000000000001,0.19694978605155072
8.092,0.12838816123264507
8.096,0.22668794672908377
8.1,0.1572344901839264
8.104000000000001,0.2205997007735602
8.108,0.24329818227095296
8.112,0.16237254907859772
8.116,0.196841863170072
8.120000000000001,0.16612559916914144
8.124,0.16520906912549996
8.128,0.19062532774122423
8.132,0.14960543019811626
8.136000000000001,0.18720650332213326
8.14,0.16677402266555455
8.144,0.15021748429501375
8.148,0.16099545545750724
8.152000000000001,0.10305114261549284
8.156,0.12502531908615694
8.16,0.08350575889640088
8.164,0.09508669644262388
8.168000000000001,0.03893561480556753
8.172,0.04196682920689173
8.176,0.05216976512472253
8.18,0.02912498394927246
8.184000000000001,-0.010622692099568919
8.188,0.010609601435030525
8.192,0.02436856463811623
8.196,-0.006186894097303396
8.2,0.01687273783996318
8.204,-0.003488414501417677
8.208,0.014554891751387439
8.212,-0.014339326930190981
8.216,-0.023847161850985885
8.22,-0.03357871909648158
8.224,-0.051518634530862785
8.228,-0.05957426183981597
8.232,-0.013969830744218998
8.236,-0.0033999399960423574
8.24,-0.006735000655632286
8.244,0.009895534428210874
8.248,-0.02941957245036505
8.252,0.003803892761800119
8.256,-0.03548714246788294
8.26,-0.059773694098143315
8.264,-0.07426510116535151
8.268,-0.03344421397771955
8.272,-0.013824908157167443
8.276,-0.043440290447491085
8.28,-0.018335487035935523
8.284,-0.05188259793234566
8.288,-0.044979045091122806
8.292,0.01068573407622729
8.296,-0.042079285576791095
8.3,-0.06215813924606531
8.304,-0.0497052690212309
8.308,-0.019723783605522915
8.312,0.007848862373343805
8.316,-0.0433681726855517
8.32,-0.0708650600021182
8.324,-0.006593963199801017
8.328,-0.03519311726550709
8.332,-0.037312795521655104
8.336,-0.044890635769834486
8.34,-0.014940706244852333
8.344,-0.05598016072601461
8.348,-0.018488150521404866
8.352,-0.039538263417343476
8.356,-0.05122486037081775
8.36,-0.03051209363181817
8.364,-0.07679910511255926
8.368,-0.009801305005375002
8.372,-0.02546090618870513
8.376,-0.02640964551313011
8.38,0.003868370698465448
8.384,-0.071572000106009
8.388,-0.03798981146674337
8.392,-0.019600578296035558
8.396,-0.03967514936790403
8.4,-0.036041475264665015
8.404,-0.02337281659798573
8.408,-0.057744805026097294
8.412,-0.02232548245951941
8.416,-0.0458188098377971
8.42,-0.017934862461688194
8.424,-0.08721407131057428
8.428,-0.057508675505874546
8.432,-0.023062697751157244
8.436,-0.044799758582795585
8.44,-0.029474547032196593
8.444,-0.02327713897601257
8.448,-0.03161337260731466
8.452,-0.03827857933372981
8.456,-0.024702855382184696
8.46,-0.008098919094806586
8.464,-0.01863271268092539
8.468,-0.009435665021320032
8.472,-0.0669105568375952
8.476,-0.09818580770850989
8.48,-0.0031583157387499936
8.484,-0.0037345852325801794
8.488,-0.005750197330110233
8.492,-0.027399759851789128
8.496,-0.038658812341667785
8.5,-0.07673210268259746
8.504,0.003900611641455602
8.508000000000001,-0.0010376217136426648
8.512,0.01582267476120717
8.516,-0.034867405341122176
8.52,-0.010662707398953605
8.524000000000001,-0.0023595349170947473
8.528,-0.027307969138093476
8.532,-0.01479514657887775
8.536,-0.06002429243288488
8.540000000000001,-0.07865734152437232
8.544,-0.006992574301512209
8.548,-0.013188441079552797
8.552,-0.015716860233360358
8.556000000000001,-0.0066446520168852025
8.56,-0.017378052893757066
8.564,-0.02244584851411536
8.568,-0.011470082144270219
8.572000000000001,-0.016383072278544193
8.576,-0.011092536303944169
8.58,-0.02255928345399926
8.584,-0.024200181534673147
8.588000000000001,-0.023595087993673942
8.592,-0.013770280522996541
8.596,-0.017989826487346185
8.6,-0.008047881199023596
8.604000000000001,-0.014004543117827305
8.608,-0.019370248788619534
8.612,-0.08215837843650092
8.616,-0.003116886847428932
8.620000000000001,-0.01811252857819856
8.624,-0.018131058869221093
8.628,-0.02631959941669685
8.632,-0.0346338295297613
8.636000000000001,0.0020631413925803407
8.64,0.014655010440624422
8.644,-0.02848736807432521
8.648,-0.018962596875164914
8.652000000000001,-0.04360990062014503
8.656,-0.018516152126308316
8.66,0.0023715389947553574
8.664,-0.011325971278404085
8.668000000000001,-0.002375292641329161
8.672,0.006021882675192958
8.676,-0.007761630946507437
8.68,-0.051011153240372954
8.684000000000001,-0.005388537467081863
8.688,0.025916563973907472
8.692,0.009807489652903522
8.696,-0.0564248883058954
8.700000000000001,-0.019890287070108318
8.704,-0.01660654715226183
8.708,-0.0014499810019889814
8.712,-0.027412304035531174
8.716,-0.0678330618586965
8.72,-0.019244619646463724
8.724,0.030703498029475817
8.728,-0.031141345606376655
8.732,-0.017753434447550755
8.736,-0.008858736642753037
8.74,-0.013152670569051148
8.744,-0.009513627750493848
8.748,-0.07279116907432379
8.752,-0.011835658978222263
8.756,-0.01911861622195516
8.76,-0.048621049620069134
8.764,-0.021792881217897565
8.768,-0.04734707342866756
8.772,-0.05293198165818329
8.776,-0.028028465118799008
8.78,-0.04057174165314767
8.784,-0.017483267004572624
8.788,-0.03995962808544342
8.792,-0.050703590844498644
8.796,-0.016066613818305292
8.8,-0.02579675725938
8.804,0.03604481803648463
8.808,0.0014243860877181953
8.812,-0.025663860039119683
8.816,-0.003691520429701953
8.82,-0.03220807102087161
8.824,-0.02033438632940289
8.828,-0.050478254505781917
8.832,0.02446520241619881
8.836,0.03314465119192992
8.84,-0.058381578409419016
8.844,-0.03610990214433042
8.848,0.023637785793930312
8.852,0.053156318955618655
8.856,0.008169497756979643
8.86,-0.016899339450845798
8.864,0.03629404939789322
8.868,0.08946614317564898
8.872,0.028810500387596326
8.876,0.045708110915351
8.88,0.01632175227152064
8.884,0.060310525480076524
8.888,0.1197203367634414
8.892,0.0912311923555903
8.896,0.09483999558777906
8.9,0.0374402011400056
8.904,0.12525943502216294
8.908,0.03742621977934526
8.912,0.06915303136760496
8.916,0.02019177893611704
8.92,0.016557471552171094
8.924,-0.0036667750554999733
8.928,0.04449473642606016
8.932,-0.003527982027322421
8.936,0.017222947783882
8.94,0.06658817600909164
8.944,0.035915574661680896
8.948,-0.025912013573138177
8.952,0.01830692303346719
8.956,-0.011961198204380508
8.96,0.0007210863918089404
8.964,-0.031029919974079036
8.968,-0.04602042839271238
8.972,-0.005576135336665764
8.976,0.0014214980256266174
8.98,0.011081426077973683
8.984,0.010364879050328485
8.988,-0.022616079983146953
8.992,0.013605303624395073
8.996,0.007944828539142364
9.0,-0.020501892401461948
9.004,0.00871490144630354
9.008000000000001,0.04468433864238554
9.012,-0.041896993599735546
9.016,-0.0039642125855090474
9.02,-0.04889434150091375
9.024000000000001,0.0012574578146481129
9.028,-0.03401147863398937
9.032,-0.005684572929835936
9.036,-0.06948620410202076
9.040000000000001,0.00033780906083670514
9.044,-0.08012547150158791
9.048,-0.11465293339620218
9.052,0.004061677966579963
9.056000000000001,0.18134847580020347
9.06,0.3771524147772406
9.064,0.6050280055304957
9.068,0.8669585136999198
9.072000000000001,0.9775290808747611
9.076,0.9048570460241916
9.08,0.7547813031174073
9.084,0.5221845658071756
9.088000000000001,0.29091014770612944
9.092,0.056523431139979
9.096,-0.09565011590371453
9.1,-0.1616998789355092
9.104000000000001,-0.14482900724232778
9.108,-0.16907252793641966
9.112,-0.11630686947445273
9.116,-0.05101651621451794
9.120000000000001,-0.02653173886687226
9.124,-0.021080947272007183
9.128,-0.014851177100492299
9.132,-0.03194428243163769
9.136000000000001,0.02082852762853735
9.14,0.03078732175495167
9.144,1.712462640067816e-07
9.148,-0.018912245705588564
9.152000000000001,0.044509269499358836
9.156,0.06342644102905445
9.16,-0.014689457363165355
9.164,-0.028511887867546756
9.168000000000001,0.062181794762095226
9.172,-0.016069178406555407
9.176,-0.013324824742970653
9.18,0.044533504493875976
9.184000000000001,0.027969189153097207
9.188,0.01510227625775855
9.192,0.010795044127884923
9.196,0.011470565789218673
9.200000000000001,0.030011502721173262
9.204,0.04708905061108673
9.208,-0.03020529538876831
9.212,0.022677406547631326
9.216000000000001,0.034821531999761395
9.22,0.01747157200517168
9.224,0.034175766867337615
9.228,0.04214236438129697
9.232,0.017921197649200474
9.236,-0.0043750277166197254
9.24,0.010405210831212229
9.244,0.04922665033321039
9.248,0.07239179571521216
9.252,0.08396723108548164
9.256,0.09505456384155331
9.26,0.12712147079999997
9.264,0.1202637587012019
9.268,0.06959174562529238
9.272,0.12581478872194132
9.276,0.07884418510503295
9.28,0.17030842652253758
9.284,0.11306949812595798
9.288,0.13404702083295203
9.292,0.15224351557933094
9.296,0.213246749573449
9.3,0.1967525087445981
9.304,0.21063939615565322
9.308,0.19483512356041582
9.312,0.2603688596077324
9.316,0.22104680902318993
9.32,0.2765419462789777
9.324,0.26732655747996326
9.328,0.22839859903783677
9.332,0.2683132919290683
9.336,0.2515025229810701
9.34,0.22950672399039257
9.344,0.24206073877547987
9.348,0.27243357358484727
9.352,0.20548229489815165
9.356,0.20157029507145657
9.36,0.24434830604135996
9.364,0.17976031595743747
9.368,0.15604129229309768
9.372,0.18761283442862398
9.376,0.17351508666457754
9.38,0.17358590444793834
9.384,0.17972519819964267
9.388,0.206182458008001
9.392,0.13396187171161633
9.396,0.10209489572133974
9.4,0.11998708192191264
9.404,0.11369577613551804
9.408,0.1066168613111261
9.412,0.0861542912355566
9.416,0.04124531374715929
9.42,0.08761951435306684
9.424,0.07664482294482666
9.428,-0.01026442469182487
9.432,-0.009300441928175439
9.436,0.03671522425917842
9.44,0.04983609924270668
9.444,0.0021518655198870147
9.448,0.0664889593336691
9.452,0.025978708072210158
9.456,0.063708899309733
9.46,0.036891562423399527
9.464,0.04956689632428828
9.468,-0.00023260341884171615
9.472,0.05997536905277797
9.476,-0.03208686241449493
9.48,0.0318266469158097
9.484,-0.03837941899935007
9.488,0.03363258534612444
9.492,0.06775435174093751
9.496,-0.0005812217965242526
9.5,-0.0032395371902096404
9.504,0.05223727938192188
9.508000000000001,-0.017657566717145738
9.512,0.05161737597786032
9.516,0.04536641753503767
9.52,0.028911953631470717
9.524000000000001,-0.0002362213152272974
9.528,-0.015680366363733225
9.532,-0.007120327734518202
9.536,0.043192425681833437
9.540000000000001,0.0016430642484237847
9.544,0.05454620862915109
9.548,0.04608172781748874
9.552,0.013543546059433472
9.556000000000001,0.028077781192935733
9.56,0.024889242554242498
9.564,0.013174231612693734
9.568,0.031974194333876715
9.572000000000001,0.004134251179695354
9.576,0.04110633729918764
9.58,-0.00196578477677058
9.584,0.041647461677336586
9.588000000000001,-0.0007067438747298538
9.592,0.013616383852369367
9.596,0.048900321188170386
9.6,-0.010179942064603549
9.604000000000001,0.00929006000075271
9.608,0.03705905329067073
9.612,0.00729164283881276
9.616,0.04258957596632784
9.620000000000001,0.04161498922094088
9.624,0.0074191648661391316
9.628,0.033655864541492345
9.632,0.07913166279365395
9.636000000000001,0.06937363506211255
9.64,0.08117824706749176
9.644,0.02374722117845309
9.648,0.009407835913072673
9.652000000000001,0.040933401731391976
9.656,0.0236130335489511
9.66,0.005526213057816209
9.664,0.02409887362904496
9.668000000000001,0.021924327190282207
9.672,0.08578675165390998
9.676,0.03894365497683175
9.68,0.026932057630796754
9.684000000000001,0.040046756718817696
9.688,0.014324129750259127
9.692,0.03897222893291537
9.696,0.03244667836945129
9.700000000000001,0.026564053994290245
9.704,0.07662018103133722
9.708,0.008418600515385
9.712,0.020559565387294775
9.716000000000001,0.07924892829668603
9.72,0.08425021880436817
9.724,0.028369972106850872
9.728,0.02531612477706074
9.732,0.039844045211047424
9.736,0.022142288419885588
9.74,0.06760229125653358
9.744,0.05408875435579949
9.748,-0.003712623365258419
9.752,-0.0022766790780036836
9.756,0.08932608665154555
9.76,-0.0036620982195663884
9.764,-0.002620249697667675
9.768,0.04250202465594401
9.772,0.02378186028660118
9.776,0.05854596769820581
9.78,0.0022799516764869486
9.784,0.08284808504620349
9.788,0.016117839684510554
9.792,0.08711253100593629
9.796,0.006715253487216053
9.8,0.04218626743800767
9.804,0.0666195198685735
9.808,0.033104756926610863
9.812,0.02520943372141664
9.816,0.05726674829379534
9.82,0.03680833910774494
9.824,0.04614584674036745
9.828,0.05648448511271177
9.832,0.021453424387997355
9.836,0.01823958729553158
9.84,0.010326308256251734
9.844,0.02096637152237177
9.848,0.05545482030755326
9.852,0.045000545341035675
9.856,0.07273326633982583
9.86,0.002245270952971855
9.864,0.01963514999064938
9.868,0.05500382003465061
9.872,0.03836815958962044
9.876,0.011136635968583778
9.88,0.06076654388423269
9.884,0.03522020693758293
9.888,0.050026053614889404
9.892,0.023012233643973354
9.896,0.029050867785144704
9.9,0.019788761074751627
9.904,0.053820932405086355
9.908,0.028349072539621427
9.912,0.03295496504338087
9.916,0.03542538244475058
9.92,0.0455122647820165
9.924,0.030383432235490615
9.928,0.05586612226264342
9.932,0.05570018556356595
9.936,0.00024224260287494803
9.94,0.02383779290569923
9.944,-0.01296784437028358
9.948,0.007700386537340023
9.952,0.012925763168618556
9.956,0.03440457409537603
9.96,0.03965702850446494
9.964,0.017496424278663995
9.968,0.049274239314250096
9.972,0.03580078714923883
9.976,0.011256538109675716
9.98,0.037637963393142806
9.984,0.03769482325095288
9.988,0.08431809684862657
9.992,0.02734002338718375
9.996,0.038786422625288475
10.0,0.048787163286571324
10.004,0.03526132813888827
10.008000000000001,0.042374301229819014
10.012,0.03889428874066635
10.016,0.04501840516991528
10.02,0.028916307549564747
10.024000000000001,0.039473800884302204
10.028,0.023556289404327517
10.032,0.04440775415818471
10.036,0.06761002818810832
10.040000000000001,0.06301154267024953
10.044,0.053550007993616325
10.048,0.1237276673763886
10.052,0.05895900375152488
10.056000000000001,0.143835340397377
10.06,0.08915325096709584
10.064,0.11186635869845724
10.068,0.06896045648547534
10.072000000000001,0.13705038347391904
10.076,0.12129393469525045
10.08,0.08395755056248312
10.084,0.11648299786123595
10.088000000000001,0.09054078038356853
10.092,0.09543305902151773
10.096,0.10965723770176117
10.1,0.1055248242091941
10.104000000000001,0.10639243418042502
10.108,0.04683233929739309
10.112,0.03538375501119949
10.116,0.03959530742390566
10.120000000000001,0.06208430991378875
10.124,0.01246363331483901
10.128,0.040637484987879155
10.132,0.06738925613536272
10.136000000000001,0.05936069447319721
10.14,0.037442364545808175
10.144,0.035908996510566435
10.148,0.02632281797646635
10.152000000000001,0.040453138806331224
10.156,0.005769168991731535
10.16,0.04163418860556178
10.164,0.034945048847675055
10.168000000000001,0.06135115757395154
10.172,0.0731099892653812
10.176,0.07354343335148138
10.18,0.05761115697653002
10.184000000000001,0.024979770245555574
10.188,0.05585511580965401
10.192,0.04633391561022257
10.196,0.00544347153799913
10.200000000000001,0.0741651685650736
10.204,0.03505954909078783
10.208,0.080234056984376
10.212,0.05132745375029982
10.216000000000001,0.068082869608156
10.22,0.011366631258884503
10.224,-0.06889524905747281
10.228,-0.03266386801497319
10.232000000000001,-0.00024905158433512903
10.236,0.0964485298487073
10.24,0.18386544539434663
10.244,0.4601318990750269
10.248,0.7194765960482433
10.252,0.8980644575419866
10.256,1.0557979998520177
10.26,1.0435183334345548
10.264,0.7609914983115624
10.268,0.5426167599896837
10.272,0.2536821422729201
10.276,0.059638355220620456
10.28,-0.08944499684949868
10.284,-0.12229238872914784
10.288,-0.12796432282943804
10.292,-0.08436493260259231
10.296,-0.045506139071040855
10.3,-0.05742947645748599
10.304,-0.040712761059492855
10.308,0.03113352463865953
10.312,0.02270813822313371
10.316,0.060321492570135915
10.32,0.0812430545643504
10.324,0.05647871269142276
10.328,0.028496882810716474
10.332,0.06737578314171111
10.336,0.04541645322706505
10.34,0.046863663045307584
10.344,0.027153356251069433
10.348,0.02737954114649862
10.352,0.06093847281969825
10.356,0.020146194677870974
10.36,0.04475537247277606
10.364,0.024371382867254012
10.368,-0.015238638561706215
10.372,0.06485544385124134
10.376,0.061364273082421095
10.38,0.03955997471741364
10.384,0.07351301938265498
10.388,0.03748639954977821
10.392,0.056481200213094475
10.396,0.0043269301439243235
10.4,0.03359894342365803
10.404,0.05612815741157414
10.408,0.007370394033659654
10.412,0.029233213178180163
10.416,0.0422271546191213
10.42,0.07617108207569141
10.424,0.05155969597480948
10.428,0.0419925964709552
10.432,0.0571235988651731
10.436,0.04661049621077993
10.44,0.08737661745459174
10.444,0.07168635996655695
10.448,0.15031884744932927
10.452,0.16886214822131485
10.456,0.1505842412903339
10.46,0.12210908925583908
10.464,0.16224172402959203
10.468,0.2273518089250133
10.472,0.16512028964655417
10.476,0.15263476844335339
10.48,0.1857825520373998
10.484,0.1859112411228564
10.488,0.21114037327716195
10.492,0.23504437407070616
10.496,0.24994665749427772
10.5,0.2770438022153722
10.504,0.2540329683799225
10.508000000000001,0.28627682210131206
10.512,0.2698581619662302
10.516,0.2944533942735138
10.52,0.36506888649836666
10.524000000000001,0.29401408935308415
10.528,0.2718662530826589
10.532,0.2773771409010064
10.536,0.26651448799042105
10.540000000000001,0.2591895289377093
10.544,0.24133440957944363
10.548,0.20001601152925483
10.552,0.23922675118805486
10.556000000000001,0.188704393374169
10.56,0.1435037290486726
10.564,0.14037364585480355
10.568,0.19819393023081378
10.572000000000001,0.1507668577038847
10.576,0.13997310380445732
10.58,0.13657971482590314
10.584,0.1958889060923245
10.588000000000001,0.14419982165016534
10.592,0.07102149004615688
10.596,0.07128937459156029
10.6,0.07921382711641671
10.604000000000001,0.08182001970362922
10.608,0.11827236022933746
10.612,0.06295563160263205
10.616,0.05833352582438537
10.620000000000001,0.04637055093634194
10.624,0.08268456076123196
10.628,0.06454629803187603
10.632,0.014086021903561698
10.636000000000001,0.00583256280133352
10.64,-0.030151877182669082
10.644,0.030689910293974023
10.648,0.05080978007286828
10.652000000000001,0.021883296633850007
10.656,0.06571604705722306
10.66,0.07257940428014382
10.664,0.014948577254726026
10.668000000000001,0.06659384998109408
10.672,0.0576248010860089
10.676,0.09636905577149814
10.68,0.019234087158047145
10.684000000000001,0.08473770578624196
10.688,0.037434671806990914
10.692,0.058051302489305755
10.696,0.0252505338144825
10.700000000000001,0.04751659038543572
10.704,-0.024536684647526313
10.708,0.04070469641718824
10.712,-0.007901869363397353
10.716000000000001,0.05940754601241645
10.72,0.014551867989120032
10.724,0.05360838515403831
10.728,-0.00271900337577468
10.732000000000001,0.011877508186950384
10.736,-0.00020016802525001098
10.74,0.024119625886800375
10.744,0.04056811053438679
10.748000000000001,-0.019121877675222537
10.752,-0.001136724805937149
10.756,0.018880033525341122
10.76,0.056821019340914866
10.764,0.027598435867332606
10.768,-0.029918826603643055
10.772,0.07947045821159049
10.776,0.0366139417462503
10.78,0.004076344509205163
10.784,0.06141465456881601
10.788,0.021125200037548336
10.792,-0.009488593907901369
10.796,0.020221980764628895
10.8,0.02502901656045714
10.804,0.04213266207025195
10.808,0.037288910585844215
10.812,0.05593016360539761
10.816,0.014121920746313786
10.82,0.052911935212376235
10.824,0.01880493953596827
10.828,0.04062026377521814
10.832,-0.0017269871692557615
10.836,0.0400825138906746
10.84,0.0164852722256814
10.844,-0.006341746025809107
10.848,0.036976378080281355
10.852,0.037859980782583076
10.856,0.018049168883468764
10.86,0.006942296836354757
10.864,-0.046263528208157836
10.868,0.013158853877012048
10.872,0.023297923540782518
10.876,0.0014142661330468
10.88,-0.006008747099873219
10.884,-0.015445738428675592
10.888,0.0014840085274926591
10.892,0.03940909290187598
10.896,0.003310857852616835
10.9,-0.000283260797782698
10.904,0.011588682169952853
10.908,0.02484790221341229
10.912,0.0018150132454547753
10.916,0.02678195264083108
10.92,0.04475301361233961
10.924,0.0330631588161798
10.928,0.022270650235154104
10.932,0.018127567870094913
10.936,0.032017882853497645
10.94,0.018175335676041737
10.944,0.02202837237192303
10.948,0.02687668850452032
10.952,0.0888177421057065
10.956,0.014476734856813028
10.96,0.004791537848856163
10.964,0.034249525896465655
10.968,0.048070142332860416
10.972,0.06300434205043284
10.976,0.04931414475625
10.98,0.02187741041341065
10.984,0.04244137080112055
10.988,-0.000116997847089257
10.992,0.03383204268382958
10.996,-0.02698468909639564
11.0,0.05293730012404903
11.004,0.0594857779894493
11.008000000000001,0.04326417739550821
11.012,0.005781596805773847
11.016,0.004901836517424336
11.02,0.029290107910573494
11.024000000000001,0.042914852432880055
11.028,0.00781704289263428
11.032,-0.039897036702657956
11.036,0.06321516838276495
11.040000000000001,0.022564661505515574
11.044,0.07580468428449277
11.048,-0.0020221442802994156
11.052,0.07708519945508446
11.056000000000001,0.007227181377012835
11.06,0.022538310918811894
11.064,0.04425453685630363
11.068,-0.00396985218143189
11.072000000000001,0.03151580807505095
11.076,0.018467670915179916
11.08,-0.023116335089069642
11.084,0.016668241486405645
11.088000000000001,0.030104720957148667
11.092,0.03781802350638714
11.096,-0.0009992226601361516
11.1,-0.02255366092083911
11.104000000000001,0.009492319241123372
11.108,-0.00340019090678147
11.112,-0.006457464518077844
11.116,0.02091412914261032
11.120000000000001,0.035649208154317026
11.124,0.032143081088715914
11.128,0.0036647759227097345
11.132,0.01956749179569075
11.136000000000001,0.01752756038884721
11.14,0.011269149421244577
11.144,0.044368319461342794
11.148,-0.006533185370616755
11.152000000000001,0.013454494375663498
11.156,0.07585108658329265
11.16,-0.02591749433249475
11.164,-0.04722715201132662
11.168000000000001,-0.0007830557641378029
11.172,0.04048496829538936
11.176,0.032927210079479574
11.18,0.015313705661273918
11.184000000000001,-0.008707131388290114
11.188,0.002583441193303412
11.192,-0.017253523601631057
11.196,-0.0028085461711569375
11.200000000000001,0.014198009243091263
11.204,0.04686305905527571
11.208,0.01306606683593706
11.212,-0.019618492613106515
11.216000000000001,0.028395169880779447
11.22,0.07234511955379132
11.224,0.01630635756224652
11.228,0.022191234099160493
11.232000000000001,0.03805419342879429
11.236,0.046174092122612226
11.24,0.06283871990624518
11.244,0.0625872409592821
11.248000000000001,0.04567483653069558
11.252,0.05954719222880603
11.256,0.1062632162825438
11.26,0.0738916800494184
11.264,0.10841534550028054
11.268,0.06093682579313306
11.272,0.048435370351178834
11.276,0.05905457430857091
11.28,0.06302220819927329
11.284,0.09443789927505956
11.288,0.07141769087055609
11.292,0.03938875775489262
11.296,0.07223016955413865
11.3,0.05962312903532515
11.304,0.05448050313745809
11.308,-0.02862837363593491
11.312,-0.00402430466719058
11.316,0.00854816587625096
11.32,0.045609201958253194
11.324,-0.015266887951230476
11.328,-0.024090895527460094
11.332,0.05183693125893665
11.336,0.07057749468863436
11.34,0.002970780686400173
11.344,-0.016296585040348897
11.348,0.025874397368995692
11.352,-0.015442344506692296
11.356,0.011614421232966528
11.36,-0.016997710184075854
11.364,-0.013518834718806497
11.368,0.00798736220589931
11.372,-0.017676648675846764
11.376,-0.011878025956366237
11.38,0.0005772229457708632
11.384,0.04298597212759556
11.388,-0.03972194028154294
11.392,0.03970481566681411
11.396,-0.01802858789458723
11.4,0.024165051358464137
11.404,0.02659914251537983
11.408,-0.010902856168005444
11.412,-0.01984165542974467
11.416,-0.06483310561503945
11.42,-0.04660443638947699
11.424,-0.08051884664917297
11.428,-0.04358404483270352
11.432,0.07448421600911229
11.436,0.26580434209188425
11.44,0.5195073006871186
11.444,0.7457455835240361
11.448,0.9301072915212503
11.452,0.9837304406368859
11.456,0.8686540406967894
11.46,0.6535667988228782
11.464,0.4098159061306145
11.468,0.10335292839251264
11.472,-0.07996093745855287
11.476,-0.110182267137546
11.48,-0.18220846730748438
11.484,-0.16018876487954253
11.488,-0.11139781317379893
11.492,-0.12933063241795828
11.496,-0.04562175661643003
11.5,-0.03418231310364676
11.504,-0.020627344372714553
11.508000000000001,-0.02139988455569206
11.512,-0.008674377867423082
11.516,0.008785538625101222
11.52,0.0031087381102476034
11.524000000000001,-0.009291142326312011
11.528,-0.02036864313776849
11.532,-0.05169536345726199
11.536,-0.002413608082077872
11.540000000000001,-0.010163353844756187
11.544,-0.026378608351898654
11.548,-0.022807572620774583
11.552,0.005408594603060531
11.556000000000001,0.03738185109355287
11.56,-0.021810578879466018
11.564,-0.042930065264226276
11.568,-0.04836081085255193
11.572000000000001,-0.0019010131077178403
11.576,-0.05087979006562401
11.58,0.010637845732674062
11.584,0.0045375064964765285
11.588000000000001,0.014620280426482618
11.592,-0.04010320613955656
11.596,0.005841164513005259
11.6,0.007971810714708987
11.604000000000001,0.00732850734457342
11.608,0.002410373637522531
11.612,0.010991156455383604
11.616,0.00013426359370062764
11.620000000000001,0.016481734889065798
11.624,0.0438418527300497
11.628,0.0058526049548123064
11.632,0.07967525709249909
11.636000000000001,0.06364477355918857
11.64,0.053446394843397166
11.644,0.01890814978886419
11.648,0.03630918259864266
11.652000000000001,0.06891155213110414
11.656,0.06348430126536862
11.66,0.11054431881079911
11.664,0.09103293735343941
11.668000000000001,0.15864231891628144
11.672,0.1782549445046985
11.676,0.19366372356267297
11.68,0.1740648106383809
11.684000000000001,0.22834341157552268
11.688,0.22414959339254947
11.692,0.1744734945514563
11.696,0.17376438690181245
11.700000000000001,0.2445206749152789
11.704,0.20240962302422363
11.708,0.18984520236159969
11.712,0.23450644383488536
11.716000000000001,0.21695139756241164
11.72,0.2023355217275743
11.724,0.25001121017195643
11.728,0.1505335227662162
11.732000000000001,0.167001434497572
11.736,0.19879875579214482
11.74,0.21557247272654245
11.744,0.15912185298746617
11.748000000000001,0.12716378435317768
11.752,0.18307417402553772
11.756,0.10492231267227412
11.76,0.09786678523745926
11.764000000000001,0.10247523355904065
11.768,0.07523784536455597
11.772,0.10158276885883179
11.776,0.06814090405919486
11.78,0.06574085600023677
11.784,0.05603742223007213
11.788,0.04916855675624566
11.792,0.013152282261534098
11.796,0.018290373267893564
11.8,-0.023245573854342137
11.804,0.04396847344727356
11.808,-0.02220133310248533
11.812,0.004272082988105143
11.816,-0.02776488709760412
11.82,-0.03549140676674416
11.824,-0.02812536316117294
11.828,-0.011113986788188411
11.832,-0.021602560313403282
11.836,-0.004570989575416828
11.84,0.016446849382387968
11.844,-0.04726482198344824
11.848,-0.03581422225738498
11.852,-0.009794816789250677
11.856,0.005888743367300699
11.86,-0.024863723892012822
11.864,-0.04259837590758656
11.868,-0.0151310437278046
11.872,-0.0002965024471877388
11.876,-0.01860139824379737
11.88,-0.06759917326250703
11.884,-0.005184924976748065
11.888,-0.03656693646277023
11.892,-0.06283522143591634
11.896,-0.05211994139664325
11.9,0.03197696789988225
11.904,-0.017233653459393452
11.908,-0.0021339032622260216
11.912,-0.017985946716800302
11.916,-0.013314212960191543
11.92,-0.03082278553742053
11.924,-0.011409666813123182
11.928,-0.02283796461617288
11.932,-0.04110587415892285
11.936,-0.01563971642636188
11.94,-0.02993803071558536
11.944,-0.03207608687797678
11.948,-0.04493030805231718
11.952,-0.0020389010743419034
11.956,-0.04448530009319812
11.96,-0.0469846421993571
11.964,-0.004796463662648201
11.968,-0.018415820528215963
11.972,0.013913937034334089
11.976,0.009437647825898954
11.98,-0.02075411354177062
11.984,-0.0069930183944180956
11.988,0.00216021275384708
11.992,0.004629031442134786
11.996,-0.03502070081635479
12.0,-0.058485235638071106
12.004,0.006150453764029555
12.008000000000001,-0.004590651764334302
12.012,-0.07834950316894174
12.016,-0.010858794206136179
12.02,-0.011207629086130587
12.024000000000001,-0.059030727246562845
12.028,-0.06136590188728159
12.032,-0.033034200930444776
12.036,-0.036638746396563684
12.040000000000001,-0.05033767849621366
12.044,-0.055811382228458765
12.048,-0.006822479951974672
12.052,-0.029846694707898015
12.056000000000001,-0.04143403291881743
12.06,-0.019345355542850478
12.064,-0.0452859978875834
12.068,-0.023194097033438246
12.072000000000001,-0.03616705534200864
12.076,-0.12340955157872244
12.08,-0.03895048466900702
12.084,-0.000929350681554926
12.088000000000001,0.0018294752271845287
12.092,-0.06856891405471024
12.096,-0.004788131993576743
12.1,-0.06941708314605204
12.104000000000001,-0.030812145771055673
12.108,-0.0389485238128702
12.112,-0.05985943312785454
12.116,-0.03663507691925487
12.120000000000001,-0.003018561138321066
12.124,-0.03288713128135268
12.128,-0.02172660442729675
12.132,-0.03104600233934878
12.136000000000001,-0.025488773555645772
12.14,-0.024544549501014024
12.144,-0.048426599709570445
12.148,-0.03770229598474984
12.152000000000001,-0.06346806137805028
12.156,-0.06470416325322913
12.16,-0.06853400444486271
12.164,-0.040530823580488574
12.168000000000001,-0.005652409793984035
12.172,0.006535822993001723
12.176,-0.010688283200614164
12.18,-0.0301059817565379
12.184000000000001,-0.054078042076488725
12.188,0.04080081191558653
12.192,-0.045134056375432594
12.196,-0.07498029465786221
12.200000000000001,-0.04540554127386555
12.204,-0.0353150323968417
12.208,-0.05252039599525096
12.212,-0.04458118744930559
12.216000000000001,-0.000159308212396167
12.22,-0.0313245258143307
12.224,-0.04081723421584918
12.228,-0.02615492255563582
12.232000000000001,-0.025452409549374545
12.236,-0.08464070904926504
12.24,-0.026028381225984856
12.244,-0.05703080045174091
12.248000000000001,-0.06750873962770312
12.252,-0.002001412079738446
12.256,-0.01952625789861367
12.26,-0.078346019416831
12.264000000000001,-0.07064643210224955
12.268,-0.043818998916365565
12.272,-0.00205973981286443
12.276,-0.037760856120339976
12.280000000000001,-0.027769418756829617
12.284,-0.06661358487579029
12.288,-0.022149568714197654
12.292,0.006146175915964218
12.296,-0.05037703152310451
12.3,-0.06050507007933276
12.304,-0.04728430593850221
12.308,-0.04424178397663582
12.312,-0.05263341134527201
12.316,-0.05363805918374971
12.32,0.017010390968233348
12.324,-0.006827815507611926
12.328,-0.09555660218706902
12.332,-0.018424703956667104
12.336,-0.05326845346779349
12.34,-0.029102180699276503
12.344,0.0031683461305762953
12.348,-0.07417969858105339
12.352,-0.020684833532479796
12.356,-0.049732134496451336
12.36,-0.02811327356539425
12.364,-0.06444989368248152
12.368,-0.038732009208617135
12.372,0.002595790277101863
12.376,-0.044585255622370354
12.38,-0.05976168909730861
12.384,-0.08427942860534246
12.388,-0.044149012230991214
12.392,-0.0006819930472061128
12.396,-0.02763360406428373
12.4,-0.04307331904289621
12.404,-0.024400484869448544
12.408,-0.03562768970274284
12.412,-0.008606052534292401
12.416,-0.013632543860897173
12.42,0.005288403131692997
12.424,0.026444526464699077
12.428,0.004526917771054243
12.432,0.0326187595215231
12.436,0.03148453990378971
12.44,-0.003718243129923894
12.444,-0.008310040056314319
12.448,0.008377358562354009
12.452,0.03315581786170541
12.456,0.044202341520611886
12.46,0.029082028306224132
12.464,0.038788493043132664
12.468,0.03929331492254345
12.472,0.07272920915826722
12.476,0.023832575880816286
12.48,-0.005703687694170279
12.484,-0.026000111804148754
12.488,-0.03165036768844766
12.492,-0.010997205023035167
12.496,0.028982904670992817
12.5,-0.04300210334823389
12.504,-0.012265930959957044
12.508000000000001,-0.08621798893150436
12.512,-0.035846136229727966
12.516,-0.0887230309511762
12.52,-0.023089724075363957
12.524000000000001,-0.022768868544412194
12.528,-0.07188705639511234
12.532,-0.02410986027328302
12.536,-0.018742990172198472
12.540000000000001,0.010089776439050228
12.544,-0.0604184928443791
12.548,-0.038780910944101785
12.552,-0.02308053919977531
12.556000000000001,-0.006497786673711446
12.56,-0.05935762798899128
12.564,-0.08538309736765277
12.568,-0.024417077506352636
12.572000000000001,-0.021569539060301693
12.576,-0.03741430140254428
12.58,-0.0076063167710949675
12.584,-0.0023653368761602234
12.588000000000001,-0.04122911429553727
12.592,-0.024189760880368658
12.596,-0.10842005680599501
12.6,-0.040121526552662795
12.604000000000001,-0.08466221143042538
12.608,-0.0959845779378247
12.612,-0.1029859562964481
12.616,-0.07009248369013218
12.620000000000001,0.03153346748438552
12.624,0.15681760613114706
12.628,0.35347595444572405
12.632,0.6348563365072686
12.636000000000001,0.894888509039794
12.64,0.979145305932601
12.644,0.8654131765904485
12.648,0.6529421099509579
12.652000000000001,0.4118389136738663
12.656,0.15479886884202995
12.66,-0.07235821904589934
12.664,-0.14161218928602165
12.668000000000001,-0.234538397735855
12.672,-0.21916908813640967
12.676,-0.19185902745699285
12.68,-0.11724006159161252
12.684000000000001,-0.10757118453727653
12.688,-0.08410691239896459
12.692,-0.06529793113410388
12.696,-0.0800878406487734
12.700000000000001,-0.037990882955021205
12.704,-0.05798008992553613
12.708,-0.022851597616030894
12.712,-0.043263104354607035
12.716000000000001,-0.04363043986976079
12.72,-0.028055524635779153
12.724,-0.01162683334578022
12.728,-0.02037916819557265
12.732000000000001,0.028745374678016834
12.736,-0.011564470732910982
12.74,-0.013843441662870992
12.744,-0.03158747211621066
12.748000000000001,-0.041537968656658326
12.752,-0.041720043477543566
12.756,-0.023342793818591438
12.76,-0.043001863258175635
12.764000000000001,-0.0020451969941097103
12.768,-0.013594162492301581
12.772,0.017483673920702745
12.776,-0.053368481885315656
12.780000000000001,-0.04850695662242007
12.784,-0.03777044407236844
12.788,-0.04862486897252106
12.792,-0.01561455276579421
12.796000000000001,-0.061586266045689314
12.8,-0.0532864351332001
12.804,-0.01668323038379076
12.808,-0.02798617716694913
12.812,-0.02303871383161124
12.816,0.005200871826313819
12.82,0.024814137419351817
12.824,0.04787366308274751
12.828,0.0032175349266316752
12.832,0.04383880087971859
12.836,0.00039813540726824775
12.84,0.07164711726416964
12.844,0.09282555080223262
12.848,0.08859048795530806
12.852,0.10955107607198553
12.856,0.09877018396611818
12.86,0.09993577170679674
12.864,0.13428700328474868
12.868,0.13673868816377782
12.872,0.1690393852121124
12.876,0.14277513121539245
12.88,0.1308796358492444
12.884,0.20151816770719982
12.888,0.248315601263729
12.892,0.19360388831322167
12.896,0.18974153485775155
12.9,0.21402203929182126
12.904,0.22925671721343802
12.908,0.1760580303481309
12.912,0.17368351477162325
12.916,0.21863162013186344
12.92,0.17227105212899033
12.924,0.17508306369883878
12.928,0.1394510455217262
12.932,0.15285303982954107
12.936,0.12148275828438111
12.94,0.1392370522166407
12.944,0.1375018514046388
12.948,0.07878611716468623
12.952,0.11932980439304253
12.956,0.05663136667901264
12.96,0.026842288599523978
12.964,0.11929288349862616
12.968,0.04889661460113648
12.972,0.0751349114803404
12.976,0.0010210852119819057
12.98,-0.005057631974123868
12.984,-0.00909353873053282
12.988,0.020888690634494028
12.992,-0.016058870028770118
12.996,-0.04840985427194193
13.0,-0.040632602438683656
13.004,-0.02141466425505042
13.008000000000001,0.021556944214863212
13.012,-0.07212473905311396
13.016,-0.0005964919974914967
13.02,-0.009706255535740945
13.024000000000001,-0.00327833324251927
13.028,-0.03837577843454461
13.032,-0.06985937369314996
13.036,0.008583588364558394
13.040000000000001,-0.05010859424466854
13.044,-0.034238965241202235
13.048,-0.0437756046644449
13.052,-0.010078170623664541
13.056000000000001,-0.017645792143815446
13.06,-0.0411941795262412
13.064,-0.024991376701433185
13.068,-0.0068665231823602235
13.072000000000001,-0.02838454772504817
13.076,-0.03260124977801515
13.08,-0.06209637199148954
13.084,-0.006726601842777076
13.088000000000001,0.009092031242275502
13.092,-0.042575408242285964
13.096,-0.0145164592749981
13.1,0.024110170613995046
13.104000000000001,0.012581324577384891
13.108,-0.007443030039837574
13.112,-0.051893130511817626
13.116,-0.012520490935592824
13.120000000000001,-0.0053542218792495076
13.124,-0.03422842918125032
13.128,-0.018146195064447507
13.132,0.0023144432859369193
13.136000000000001,-0.045528800776154704
13.14,-0.004867338279093532
13.144,-0.048602020534161294
13.148,-0.06012763390626086
13.152000000000001,-0.018881341912030027
13.156,0.009632404931912607
13.16,-0.02792623726003397
13.164,-0.05008219768254639
13.168000000000001,-0.04236554895512683
13.172,-0.011875971490710683
13.176,-0.03729754040679358
13.18,-0.03939497175716805
13.184000000000001,-0.03384681141961632
13.188,-0.02890696025223407
13.192,0.0191366220620546
13.196,-0.07989938012374816
13.200000000000001,-0.023280907560195803
13.204,0.009073258226837378
13.208,-0.01879928112863917
13.212,-0.08806133241357138
13.216000000000001,-0.010519943541549625
13.22,-0.017352689561699962
13.224,-0.05006813551834956
13.228,-0.04585329632224598
13.232000000000001,-0.02637834407614944
13.236,-0.03836744850586263
13.24,-0.02183339023452733
13.244,-0.03382262612245386
13.248000000000001,-0.018573816694328674
13.252,-0.035078682077530426
13.256,-0.020669886301043817
13.26,-0.07958761408941999
13.264000000000001,-0.03465123772762113
13.268,-0.032786521267257104
13.272,0.018120537990609656
13.276,-0.05727627957211402
13.280000000000001,-0.08000644998805073
13.284,-0.03299222027379346
13.288,-0.04142941789323586
13.292,-0.054084928773521355
13.296000000000001,0.01167582479826498
13.3,-0.027910082842348055
13.304,-0.033929174062461875
13.308,-0.0796866759175602
13.312000000000001,-0.009038638879237539
13.316,-0.023534339840926195
13.32,-0.03902597112519451
13.324,-0.05104500930104114
13.328,-0.03592462284859785
13.332,0.015479786010951811
13.336,0.020183757153806957
13.34,0.015317811983258756
13.344,-0.012652405360579436
13.348,-0.06052547353111925
13.352,-0.027809269155487815
13.356,0.007520252851015737
13.36,-0.08658819153763302
13.364,0.013289151504693866
13.368,-0.019382668599491032
13.372,-0.034990261133718496
13.376,0.015444747735187156
13.38,-0.00804302127685437
13.384,-0.0022071047888196985
13.388,-0.023928203180342986
13.392,-0.053102276825058595
13.396,-0.026697648175880946
13.4,-0.03310550602911537
13.404,-0.017266921007987365
13.408,0.005584251837884965
13.412,-0.06392605595282252
13.416,0.013394484298011244
13.42,0.037357624965735636
13.424,-0.014176715508549872
13.428,-0.000793078390841577
13.432,-0.04394302299858906
13.436,-0.025676493480218356
13.44,-0.039966997056065295
13.444,-0.052507979897370556
13.448,-0.04251359936753318
13.452,-0.010376514038411144
13.456,0.020395783178018243
13.46,-0.008659630082480427
13.464,-0.03134415924516708
13.468,0.029299568232739673
13.472,0.02432171804951366
13.476,-0.03671837448846897
13.48,-0.057605890761821106
13.484,-0.0013085925274644054
13.488,0.06529603019860916
13.492,-0.025875107851630254
13.496,0.017445998290226663
13.5,0.018735866660740733
13.504,0.009663004985053032
13.508000000000001,0.04393910458241139
13.512,-0.0659082352633088
13.516,0.01399922429402592
13.52,0.05373574902393316
13.524000000000001,-0.0036933982896945636
13.528,-0.04623039674599126
13.532,-0.049498197947562286
13.536,-0.001442879482708098
13.540000000000001,0.003262145320015489
13.544,-0.003255879463423917
13.548,-0.03185053502754961
13.552,-0.0036203071090447738
13.556000000000001,-0.00866546902569355
13.56,-0.0035663140668449386
13.564,-0.031884887042893134
13.568,0.03482695588268361
13.572000000000001,-0.005553843727939687
13.576,-0.010578121303592935
13.58,0.00672554495556725
13.584,0.03327097262207913
13.588000000000001,0.004362350392911226
13.592,-0.005411382850139802
13.596,0.01543732797446702
13.6,0.008579755282444972
13.604000000000001,-0.019166155149669968
13.608,0.026654285705731976
13.612,-0.00174631367284769
13.616,0.029016045881511257
13.620000000000001,-0.0159375018594968
13.624,-0.0007210442154744201
13.628,-0.0015696420422647885
13.632,-0.01667521028594302
13.636000000000001,-0.025181495697120762
13.64,-0.0003365142819113237
13.644,-0.02721934363099755
13.648,0.015025709375082732
13.652000000000001,-0.012626520282733669
13.656,0.025248384040776763
13.66,-4.1764907434816215e-05
13.664,0.011034891786563297
13.668000000000001,-0.0013009889934405662
13.672,-0.019661675593227762
13.676,-0.0394031251394716
13.68,-0.011121914333743564
13.684000000000001,-0.021162604193605807
13.688,0.03744004002003429
13.692,0.025094557536662235
13.696,-0.024397798382536938
13.700000000000001,-0.004120694781236718
13.704,0.028044854788935876
13.708,0.011112757126650873
13.712,-0.03960182864254009
13.716000000000001,0.0016660608071148177
13.72,-0.020120942072677346
13.724,0.04512862287977018
13.728,-0.020592230534972503
13.732000000000001,-0.02064082993851879
13.736,0.008316033939273607
13.74,0.04714755748945573
13.744,-0.022903359066232334
13.748000000000001,-0.03370174100645764
13.752,-0.02299376777611053
13.756,0.02159541392079946
13.76,-0.02146130772731891
13.764000000000001,0.026505085023136032
13.768,0.0009473114136431555
13.772,0.01186055951453507
13.776,-0.00537284060215355
13.780000000000001,0.018799140640600953
13.784,0.025615112422868243
13.788,0.01746924459021356
13.792,0.004154891850249616
13.796000000000001,0.046787246001037563
13.8,0.01750070905379126
13.804,0.007361103662395332
13.808,0.014983620414145814
13.812000000000001,-0.01692633063174156
13.816,0.003447698245034812
13.82,-0.022738894164300145
13.824,-0.022819687752072555
13.828,-0.03476744207623064
13.832,-0.030167923511872266
13.836,0.02616262161786837
13.84,0.012234210716084156
13.844,-0.016270937583057987
13.848,-0.05129485992379809
13.852,-0.006703091318330443
13.856,-0.0021561926075897853
13.86,-0.0023475011463050324
13.864,-0.04087903257399676
13.868,0.016913516934587532
13.872,0.02408500390268705
13.876,0.03852187518177062
13.88,0.02624407107294441
13.884,0.03754874508807881
13.888,-0.02505987057080699
13.892,0.01153870011256062
13.896,0.038111521226618775
13.9,0.004766805631935567
13.904,-0.0192620087394181
13.908,0.020737342724533356
13.912,0.029001153603405688
13.916,0.0007519140250455813
13.92,0.056587435204308256
13.924,0.009407439056506506
13.928,-0.02795416823025989
13.932,0.028106076375855722
13.936,0.04163695516951303
13.94,-0.034980813133557456
13.944,-0.005089484252734408
13.948,0.060494678129919544
13.952,0.04510672662890737
13.956,0.02401283388695922
13.96,0.007796415451913078
13.964,0.035532897432132934
13.968,0.00017651136117426483
13.972,0.010679253023611524
13.976,0.07276665027139165
13.98,-0.013002405116818723
13.984,0.021441631596010216
13.988,0.03196738363987306
13.992,0.029916972266205967
13.996,0.02099828582021812
