Seconds,ECG
0.0,0.06151261582487478
0.004,0.0069876581664611356
0.008,-0.010105976733645142
0.012,-0.05138480276618848
0.016,0.0264072297246105
0.02,-0.0015355732198939678
0.024,0.013975412152132216
0.028,0.023490148072781318
0.032,0.029463404486521672
0.036000000000000004,0.026961932939049714
0.04,0.047180013228769115
0.044,0.003995186350447922
0.048,0.007023605923866704
0.052000000000000005,-0.0023348460972348623
0.056,0.015630267844374733
0.06,0.005907188309339396
0.064,0.0031314956733592986
0.068,0.01463718867577089
0.07200000000000001,0.07582125496852096
0.076,0.005823076969716713
0.08,-0.013182777135943003
0.084,0.0056662878388011526
0.088,-0.008004755693715185
0.092,0.031415999774723244
0.096,-0.022790831214045695
0.1,-0.004680180312543005
0.10400000000000001,-0.00977020507482663
0.108,-0.013149278759581705
0.112,-0.0032630322777340006
0.116,-0.007908995907340028
0.12,-0.04222511510187884
0.124,0.03884471269040955
0.128,-0.02301563832084425
0.132,-0.021795226888457395
0.136,0.045670470530875924
0.14,-0.013278014294492546
0.14400000000000002,-0.002489577823467357
0.148,0.021866615119076865
0.152,0.05485605464607063
0.156,0.04244733967779642
0.16,0.021320243014596518
0.164,-0.030158059028735803
0.168,-0.023188907403097356
0.17200000000000001,0.013756454949663103
0.176,-0.011342193586587166
0.18,0.014543622532910912
0.184,-0.012240531875885231
0.188,-0.01439398025994397
0.192,0.04787334204503916
0.196,0.012066114105553197
0.2,0.002754250637714546
0.20400000000000001,-0.00879225900897634
0.20800000000000002,0.003143384188221337
0.212,0.01042794840788286
0.216,-0.026536814703066666
0.22,-0.006830312968830705
0.224,0.029317884927804194
0.228,-0.00012938588462770543
0.232,-0.03472898746198434
0.23600000000000002,0.013654220480551628
0.24,0.009840346547552491
0.244,-0.04066339027468807
0.248,0.014110136217703087
0.252,-0.018818808084421268
0.256,0.03499044996457871
0.26,-0.03818419126650169
0.264,0.029230776212032974
0.268,-8.105709972127534e-05
0.272,0.04291081253579368
0.276,0.03138890011482851
0.28,-0.006844891160782813
0.28400000000000003,0.036690160430357235
0.28800000000000003,0.0833729980228792
0.292,0.03662873082429943
0.296,0.015167768497070898
0.3,0.035912959099496045
0.304,0.0419762474441973
0.308,-0.009527121672429464
0.312,-0.03197027027150898
0.316,0.03329913205726088
0.32,0.015430321487806754
0.324,0.019232184813695624
0.328,-0.008087440488953778
0.332,0.004042755759197165
0.336,-0.007050410166483178
0.34,0.0342004438316901
0.34400000000000003,0.015186072179627634
0.34800000000000003,0.005615247670303228
0.352,0.09221247812348343
0.356,0.07362454959425996
0.36,0.0029931351377984776
0.364,-4.0792896162305387e-05
0.368,0.040197478833290196
0.372,-0.016095593663999146
0.376,-0.012082819554327068
0.38,0.05343502830594518
0.384,0.03299873574628487
0.388,0.04298773459947654
0.392,-0.0039374745028020915
0.396,0.03890251026833609
0.4,-0.0183805629986956
0.404,0.009369796360940947
0.40800000000000003,0.010130509836347673
0.41200000000000003,0.0032342587827167055
0.41600000000000004,0.001066599900331441
0.42,-0.02622373290740244
0.424,0.06487375492335826
0.428,0.06403718399625825
0.432,0.0055263927849171545
0.436,0.11698592072991966
0.44,0.04071094498223497
0.444,-0.028118489679921727
0.448,-0.03456833606219237
0.452,0.0729162874231671
0.456,-0.03067562835894014
0.46,0.0028317262123024236
0.464,0.03579974518422493
0.468,0.00490527151342058
0.47200000000000003,0.018297849089329632
0.47600000000000003,0.01885076400524591
0.48,0.056933748276108254
0.484,0.05163391682257225
0.488,0.10281774398539015
0.492,0.03594906916328258
0.496,0.029915357451251172
0.5,0.051761145472869405
0.504,0.08161571382441202
0.508,0.07720349218182519
0.512,0.09757907101946696
0.516,0.10441711388987424
0.52,0.1301699961207474
0.524,0.08776550771503931
0.528,0.12158367913991489
0.532,0.08281279205493432
0.536,0.12447640363543716
0.54,0.015455314704317075
0.544,0.0909498317690622
0.548,0.05676727519400799
0.552,0.05241574582786347
0.556,0.10843704643841179
0.56,0.05252193059647113
0.5640000000000001,0.052125512059346915
0.5680000000000001,0.045320009695737525
0.5720000000000001,0.037409030918434144
0.5760000000000001,0.033836686685924405
0.58,0.012646196030545669
0.584,0.019186412885762602
0.588,0.02684836017377558
0.592,0.05565463952544703
0.596,0.05523855563285481
0.6,0.040094970816438556
0.604,0.06942651435960709
0.608,0.04966714910508849
0.612,0.009285544233919004
0.616,0.04331494909694156
0.62,-0.09797645027605006
0.624,0.024547830190341752
0.628,-0.03019331442517678
0.632,0.0070779552375933984
0.636,0.044927803673045136
0.64,-0.006715989950200309
0.644,0.011401071033612362
0.648,0.008012079362704538
0.652,-0.00035027784135350723
0.656,0.017094357083666394
0.66,-0.0458063666963311
0.664,-0.01759311440133234
0.668,-0.09302196823392885
0.672,-0.01900108542872863
0.676,-0.02852810668266631
0.68,0.04014985756340386
0.684,0.1579514701637908
0.6880000000000001,0.4774148276388206
0.6920000000000001,0.732835818896688
0.6960000000000001,0.9013917598588854
0.7000000000000001,1.0315896612326299
0.704,0.9594399811456747
0.708,0.730556575629935
0.712,0.4017146785986449
0.716,0.1980657044287476
0.72,0.041433673781922045
0.724,-0.08685060671434895
0.728,-0.13384849640401308
0.732,-0.13395400201317167
0.736,-0.1115599951836793
0.74,-0.051287941973300416
0.744,-0.044400891145955045
0.748,0.028462735556004926
0.752,0.015283248430346766
0.756,0.016362589418167747
0.76,0.011473124496423424
0.764,-0.009858005444976625
0.768,-0.010605184551245362
0.772,0.06413883681374381
0.776,0.039100131335978505
0.78,9.462888983298445e-06
0.784,0.056890519674722695
0.788,0.08850606547170078
0.792,0.012076747753242696
0.796,-0.012046125163505818
0.8,0.036218249739076454
0.804,0.07003323662355951
0.808,0.054928124699384316
0.812,0.028992462569739034
0.8160000000000001,0.019923127501148236
0.8200000000000001,0.06241992156575708
0.8240000000000001,0.06178516405457794
0.8280000000000001,-0.006274246266290227
0.8320000000000001,0.001314613683454268
0.836,0.04117843212721053
0.84,0.01729880439301496
0.844,0.0678096676227127
0.848,0.03398721353145842
0.852,-0.015394316999207534
0.856,0.08381386190804016
0.86,0.0413132168500945
0.864,0.04230017661008842
0.868,0.12631276039333275
0.872,0.11653080827698517
0.876,0.09819173367283397
0.88,0.060171910463892524
0.884,0.06418678860889743
0.888,0.08206070834052817
0.892,0.10433553910150477
0.896,0.10215391844497847
0.9,0.15307490390100226
0.904,0.15632712493850612
0.908,0.19891083260494088
0.912,0.16822773533149998
0.916,0.2087591568248213
0.92,0.13784517092760082
0.924,0.2607108985550991
0.928,0.19283875730326488
0.932,0.21389807634567443
0.936,0.21820362932928256
0.9400000000000001,0.23225364953189875
0.9440000000000001,0.20424749107052925
0.9480000000000001,0.2251422826679208
0.9520000000000001,0.29694934344891455
0.9560000000000001,0.2833835551763269
0.96,0.2937878861196663
0.964,0.31071938450430375
0.968,0.24086716329256164
0.972,0.21776391381414795
0.976,0.24153802211842268
0.98,0.28245198819956574
0.984,0.29014250508198114
0.988,0.20817473339648748
0.992,0.21251472672976154
0.996,0.1745064188498643
1.0,0.23187453463971366
1.004,0.14816822618863124
1.008,0.1958294744126884
1.012,0.17112473873433867
1.016,0.2153471055056508
1.02,0.25589925730629975
1.024,0.20701655490212545
1.028,0.143612477965563
1.032,0.15959138713123153
1.036,0.11473431051668118
1.04,0.16960732199645684
1.044,0.17344826260816942
1.048,0.12393961992879124
1.052,0.15216924734066192
1.056,0.19315877488473251
1.06,0.12007430758694024
1.064,0.04169963868200504
1.068,0.09213662617834065
1.072,0.12213420383623139
1.076,0.02791962906749465
1.08,0.06422242061094675
1.084,0.02505858569556791
1.088,0.007030208753582429
1.092,0.07502073634623568
1.096,-0.05397120242652363
1.1,0.05521157857001446
1.104,0.09894548937582759
1.108,0.025312721221737933
1.112,0.015028475931825968
1.116,0.004348840669933046
1.12,-0.028224488003711787
1.124,0.021279706659321836
1.1280000000000001,-0.012152099864011008
1.1320000000000001,0.04226024223560068
1.1360000000000001,0.06955301521908525
1.1400000000000001,0.010413969989744282
1.1440000000000001,0.05574547601171924
1.1480000000000001,0.061895633692001684
1.1520000000000001,-0.026992385174534873
1.156,0.014917179776213364
1.16,0.024852838222883575
1.164,0.03547845592938703
1.168,0.08701306660930287
1.172,0.017696331317645336
1.176,0.024560219992387142
1.18,0.0020629048630891496
1.184,-0.039126283386447455
1.188,-0.060689422384364256
1.192,-0.026144322006958924
1.196,-0.04994428227135986
1.2,0.0022624460281720146
1.204,0.0593656762044502
1.208,0.2404159642160209
1.212,0.46556046590841427
1.216,0.7140327583401085
1.22,0.9927131579819892
1.224,1.0461497704904694
1.228,0.982464724129751
1.232,0.7327900331232232
1.236,0.5199905295433868
1.24,0.19831956869598025
1.244,0.015405918967707119
1.248,-0.0901649691324339
1.252,-0.18049877161231165
1.256,-0.17926277553162173
1.26,-0.11793054193417622
1.264,-0.05106236785537352
1.268,0.017151671909610346
1.272,-0.016358954541469704
1.276,0.020589518908942808
1.28,0.026892739069270696
1.284,0.002494421571494071
1.288,0.027789022196532075
1.292,0.007962944136891636
1.296,0.006885914201136576
1.3,-0.020196649445515448
1.304,0.07322266110667508
1.308,0.018321155717409963
1.312,0.042337777481010065
1.316,0.027216317059549005
1.32,0.04781885966749587
1.324,-0.00619816231168753
1.328,0.006212816842907722
1.332,-0.021748223738219313
1.336,0.005425705433911923
1.34,0.06410120856160692
1.344,-0.00039640053763970173
1.348,0.002314008256604508
1.352,0.04804717061779212
1.356,0.013950055165379935
1.36,0.052557468619595045
1.364,0.03917028888097564
1.368,0.06405292285422447
1.372,0.09585965364684707
1.3760000000000001,0.09928849557497178
1.3800000000000001,0.03616106954423694
1.3840000000000001,0.05889256019015274
1.3880000000000001,0.04984666418124289
1.3920000000000001,0.05250239084448676
1.3960000000000001,0.02898134223278707
1.4000000000000001,0.0879720908665169
1.4040000000000001,0.037185443770105575
1.408,0.1280024563671291
1.412,0.08825689121019298
1.416,0.10830051646057896
1.42,0.12944253018143292
1.424,0.1309419925686594
1.428,0.11789939819772656
1.432,0.15427962241166285
1.436,0.19610147169105435
1.44,0.16588445441564065
1.444,0.16796532083200696
1.448,0.15993204616944498
1.452,0.2873879508185996
1.456,0.2022404717391303
1.46,0.1904779488644883
1.464,0.27310926400227137
1.468,0.24830183313889545
1.472,0.26439353954086775
1.476,0.2766025237445398
1.48,0.21376357307377597
1.484,0.24944739149103118
1.488,0.31102536482287785
1.492,0.19735977576690647
1.496,0.28984740989006724
1.5,0.22766527147334342
1.504,0.30024224996782284
1.508,0.2774265951649897
1.512,0.2568048493930256
1.516,0.24894989659343827
1.52,0.2935495871167984
1.524,0.25514315170780477
1.528,0.23726922317970875
1.532,0.17126178219737728
1.536,0.23868748289457545
1.54,0.2029615958462274
1.544,0.17500385193912124
1.548,0.16964815554275378
1.552,0.20907667393693552
1.556,0.17747537802291052
1.56,0.15657163649660596
1.564,0.11739635855644659
1.568,0.14871263179802294
1.572,0.09309926021866559
1.576,0.10514941237485302
1.58,0.0944822796650565
1.584,0.10113300667766259
1.588,0.07517613320708003
1.592,0.08005411380560587
1.596,0.04540249720913158
1.6,0.023370054444580762
1.604,0.08921876972614247
1.608,-0.0357031467957947
1.612,0.02358846484190178
1.616,-0.001549992814529607
1.62,0.00645157632849231
1.624,0.044635499111706264
1.6280000000000001,0.05249058846294298
1.6320000000000001,0.004407827435575471
1.6360000000000001,0.0425039570606371
1.6400000000000001,0.022608619696122767
1.6440000000000001,-0.022692442626773154
1.6480000000000001,0.009415818744237338
1.6520000000000001,0.041207308649522684
1.6560000000000001,0.005554551520330044
1.6600000000000001,0.051733876289511316
1.6640000000000001,0.02435058518276821
1.668,0.02610511331052513
1.672,0.06345905490400754
1.676,0.035032792060274376
1.68,0.0045581092738559625
1.684,0.024833507748306352
1.688,-0.06740345192590273
1.692,0.008353819608995897
1.696,-0.12510900904333727
1.7,-0.0389010474596274
1.704,-0.019907489735391172
1.708,0.08283503667302058
1.712,0.1940851111386072
1.716,0.47449182486101643
1.72,0.7766469046377831
1.724,0.978216392525911
1.728,1.0215397310190062
1.732,0.9492730858153409
1.736,0.6778367271470664
1.74,0.4601617885093592
1.744,0.14101974951444934
1.748,-0.037935871763414265
1.752,-0.12324395657091188
1.756,-0.16709134000796463
1.76,-0.12618774351525489
1.764,-0.10539443620363854
1.768,-0.09698171516939869
1.772,-0.05293215491268593
1.776,0.01863388009648341
1.78,-0.0005912236653249175
1.784,-0.027028230221274305
1.788,0.048274338461328475
1.792,0.020116530820136362
1.796,-0.0013104639986088566
1.8,0.010187441969690849
1.804,0.05580020757275823
1.808,0.021313872769886066
1.812,0.013982428903438076
1.816,-0.0004990661992806955
1.82,0.0038675041689297494
1.824,-0.0047009224584217656
1.828,0.025138142594496215
1.832,-0.03251440802139993
1.836,0.06557940245357233
1.84,0.05965397658222012
1.844,-0.03115522408134961
1.848,0.04477683343748651
1.852,0.012711182676859011
1.856,0.03312663386475166
1.86,0.017787531972146345
1.864,0.003874525621258132
1.868,0.02274843319630184
1.872,0.011448210129419541
1.8760000000000001,0.13750289085721956
1.8800000000000001,0.011677857939359207
1.8840000000000001,0.05814607879985984
1.8880000000000001,-0.011716001061329001
1.8920000000000001,-0.03403225971319693
1.8960000000000001,0.06828659067460581
1.9000000000000001,0.00887014777267748
1.9040000000000001,0.04429121179865904
1.9080000000000001,0.11644423550375188
1.9120000000000001,0.08280319183277553
1.9160000000000001,0.07046772046281179
1.92,0.10785691303052908
1.924,0.10428808645959553
1.928,0.10880112029447649
1.932,0.11040772674607167
1.936,0.11754447108731884
1.94,0.11741590167046646
1.944,0.1532517081622016
1.948,0.16024004838144734
1.952,0.18508147484349982
1.956,0.19560658215113597
1.96,0.20841226669015617
1.964,0.2733700943372477
1.968,0.21684860067625944
1.972,0.24360455908334375
1.976,0.2813254041434711
1.98,0.26963560389386987
1.984,0.26856060655948666
1.988,0.26983951086815
1.992,0.26052931323581807
1.996,0.23428726752293913
2.0,0.28063733580153344
2.004,0.290309729379278
2.008,0.2836270641409842
2.012,0.2618539423906832
2.016,0.216775940796424
2.02,0.27969287828790773
2.024,0.22644577420219897
2.028,0.23592257040881204
2.032,0.2272506858533259
2.036,0.22784109701821592
2.04,0.24663506352760567
2.044,0.16113831001079237
2.048,0.2417645655620994
2.052,0.16856538880406224
2.056,0.23728760061320417
2.06,0.1348445023011465
2.064,0.1131153934400959
2.068,0.20530296490661426
2.072,0.10307289228141497
2.076,0.03934878198893431
2.08,0.08699671201442197
2.084,0.13477467757070682
2.088,0.10528448016202555
2.092,0.03437131909665801
2.096,0.06239686088681458
2.1,0.04742471442425021
2.104,0.030523766865627546
2.108,0.00987156043945882
2.112,0.061498109634397724
2.116,0.04719632446578387
2.12,0.045671912610433844
2.124,0.006007178014109856
2.128,-0.007075550719971008
2.132,-0.017305890435253893
2.136,-0.005458926436571218
2.14,0.04276724810364672
2.144,0.028851568923360618
2.148,-0.014193156289931383
2.152,0.04357279373187154
2.156,0.04852396148212411
2.16,-0.039272699970172194
2.164,-0.013961364032171193
2.168,0.01225268526960445
2.172,-0.022311800396735908
2.176,0.028389468271538223
2.18,-0.041191321314732965
2.184,-0.0032104798283515597
2.188,-0.01916382029067288
2.192,-0.09823405245397582
2.196,-0.07969132187698713
2.2,-0.061718712536926325
2.204,-0.0879842421245892
2.208,0.08353332846248071
2.212,0.2407415388665588
2.216,0.5779769742242523
2.22,0.8023019880333258
2.224,0.9857144199834385
2.228,0.966492804079314
2.232,0.9063606478691201
2.236,0.6634142794953758
2.24,0.32281462985417436
2.244,0.11485496265958946
2.248,-0.06470647309695782
2.2520000000000002,-0.13776196076459238
2.2560000000000002,-0.1396401258447059
2.2600000000000002,-0.11969684089849579
2.2640000000000002,-0.14486903821412445
2.2680000000000002,-0.05411459991758344
2.2720000000000002,-0.005586751722465876
2.2760000000000002,-0.02233054898282185
2.2800000000000002,-0.025696333437180217
2.2840000000000003,0.04281033499754876
2.2880000000000003,0.06514130541950687
2.2920000000000003,-0.013958038466487431
2.2960000000000003,-0.0659369263171941
2.3000000000000003,-0.011504018205579242
2.3040000000000003,-0.014229253759042234
2.308,0.014053136104634156
2.312,-0.029111758468165584
2.316,0.057562562145195555
2.32,0.0023260271270690485
2.324,-0.04910639183706174
2.328,0.025832773809340244
2.332,0.0016427834826090093
2.336,0.022935341543014555
2.34,0.01618183794259627
2.344,0.0014839645726321578
2.348,-0.08920668197366988
2.352,0.01424105676046461
2.356,0.038815973538580066
2.36,-0.002905394610792704
2.364,-0.015724864581296454
2.368,0.024300475385726494
2.372,0.02159025878249281
2.376,0.007476567621010033
2.38,0.014670421975665645
2.384,0.019774628199672167
2.388,0.023264297672881688
2.392,0.01928661098464755
2.396,0.053126376536663106
2.4,0.030036272831596173
2.404,0.06475065554628412
2.408,0.05419524580625747
2.412,-0.031379387888899955
2.416,0.06593210381074917
2.42,0.054714938499496976
2.424,0.07040583325951931
2.428,0.11379136380947755
2.432,0.12430461503834812
2.436,0.0931920764824822
2.44,0.13800654970556736
2.444,0.13077197615701552
2.448,0.11090072898845091
2.452,0.17643577229175375
2.456,0.22146283376965467
2.46,0.17290231946294432
2.464,0.20709088417636315
2.468,0.2252675141828339
2.472,0.2446795831455495
2.476,0.22568485141666586
2.48,0.1864742536393556
2.484,0.22132304182379667
2.488,0.26589904624557176
2.492,0.2040240183263916
2.496,0.2079238573560632
2.5,0.23947327552265169
2.504,0.2258597274896639
2.508,0.27107419418507817
2.512,0.1920614178337233
2.516,0.2126954242707729
2.52,0.1762436445919885
2.524,0.22451096458945288
2.528,0.18620940627882446
2.532,0.1526171974216945
2.536,0.2025517186249765
2.54,0.21408362500538264
2.544,0.1638597934106673
2.548,0.10595449783687245
2.552,0.17956669777577905
2.556,0.19643748091124
2.56,0.15705757011335036
2.564,0.15613601106498443
2.568,0.07466369716772289
2.572,0.1022065684437681
2.576,0.1071271909299836
2.58,0.07153301270803772
2.584,0.07666531605833275
2.588,0.041788381285027855
2.592,0.0951372065882163
2.596,0.05948231394058019
2.6,-0.029802527187191737
2.604,0.05555696359060059
2.608,0.030082696627502778
2.612,-0.04027264121686755
2.616,0.012049832886073695
2.62,0.0003250551648369725
2.624,-0.027388156600231327
2.628,-0.06609851616733627
2.632,-0.04045929181011165
2.636,-0.008142750988772221
2.64,0.04587363829806166
2.644,0.0006566245986144789
2.648,-0.0006186780930187777
2.652,0.01743451876909638
2.656,-0.017065917346812846
2.66,0.00714014014570814
2.664,-0.06951330724447755
2.668,-0.017621642042044687
2.672,0.024969737084271908
2.676,-0.03407711933288805
2.68,-0.006022859036910206
2.684,-0.026674577909754776
2.688,1.081547318449328e-05
2.692,-0.011060670191435631
2.696,-0.08996815245727463
2.7,-0.011773652278923186
2.704,-0.05919583456960945
2.708,-0.06343415580828933
2.712,-0.10843374954140841
2.716,-0.01693831427115698
2.72,0.09392550958059445
2.724,0.3107874607850289
2.728,0.5513803094293401
2.732,0.7572352405659922
2.736,0.9942320946545071
2.74,0.9606765850588972
2.744,0.7794753110555849
2.748,0.5682728599474588
2.7520000000000002,0.26596283138824045
2.7560000000000002,0.12060556226206266
2.7600000000000002,-0.10058139297305624
2.7640000000000002,-0.22375079390667302
2.7680000000000002,-0.20558722176103308
2.7720000000000002,-0.21859607478019666
2.7760000000000002,-0.1408772277800645
2.7800000000000002,-0.13955546834243657
2.7840000000000003,-0.078338644376407
2.7880000000000003,0.002469952298350165
2.7920000000000003,-0.029917086846756896
2.7960000000000003,-0.007187736560289763
2.8000000000000003,-0.04848199413342303
2.8040000000000003,-0.03748866985168299
2.8080000000000003,-0.07804077680040837
2.8120000000000003,0.006724383983862863
2.816,-0.0186529364695133
2.82,0.042221101773598425
2.824,-0.03604348513188182
2.828,-0.04644041952097337
2.832,0.0032353164308398692
2.836,-0.03168692525341701
2.84,0.010943013508223739
2.844,0.02886771464034238
2.848,-0.03399814190145797
2.852,-0.006811136862856689
2.856,0.008557529795086323
2.86,-0.03893864111985958
2.864,-0.02446025747101999
2.868,-0.03626938848307634
2.872,-0.07504954044396336
2.876,-0.01653605015561148
2.88,-0.0514605036106745
2.884,-0.045229657907406
2.888,0.051270863158132694
2.892,-0.03847254524439523
2.896,-0.019964558437561182
2.9,-0.031109466978688823
2.904,-0.016018698086294185
2.908,0.01984705564181738
2.912,-0.011407790231684452
2.916,-0.0018380096655612847
2.92,0.043578147846288905
2.924,0.017230501067133946
2.928,0.035409146462811514
2.932,0.0782820539530486
2.936,0.060933659573173246
2.94,0.15467571808511693
2.944,0.07284464482319515
2.948,0.077023128798872
2.952,0.06700517421624053
2.956,0.19723668311989992
2.96,0.13201818923001632
2.964,0.1617313059322369
2.968,0.14817617186424598
2.972,0.17382170039863892
2.976,0.19535721201545883
2.98,0.21235040582050113
2.984,0.20656401593053028
2.988,0.2311335482642325
2.992,0.24632963103944727
2.996,0.23054090585678363
3.0,0.24151799266187182
3.004,0.29067492336012296
3.008,0.2268190819097778
3.012,0.2601710679502082
3.016,0.2783906377387232
3.02,0.22723524217251348
3.024,0.22064203778899008
3.028,0.2464624402511982
3.032,0.17335775280550514
3.036,0.22598306203472177
3.04,0.16799294903017095
3.044,0.22563435527008846
3.048,0.19990831814024396
3.052,0.195227162039983
3.056,0.12193606237204344
3.06,0.1500860415014884
3.064,0.09669817715167388
3.068,0.04804462195998392
3.072,0.02199289825365433
3.076,0.02927674585644622
3.08,0.08625246154978444
3.084,-0.003870802715296516
3.088,-0.01580579915046592
3.092,0.022986931330767395
3.096,-0.029013079387843387
3.1,0.032719893278095734
3.104,0.012969043702675768
3.108,0.018283538780942868
3.112,-0.054092836190504166
3.116,-0.02215870121550859
3.12,-0.04265692006903549
3.124,0.04679947564446793
3.128,-0.036116350184609805
3.132,-0.02249645852441702
3.136,-0.07638842962522431
3.14,-0.04192274759188771
3.144,-0.04525282609260888
3.148,-0.09380959717457801
3.152,-0.007756258634066714
3.156,-0.07286274745170238
3.16,-0.07701619346464625
3.164,-0.007289764220356147
3.168,0.04849580876537439
3.172,-0.023406547355030654
3.176,-0.034885453456428676
3.18,-0.08160363373166599
3.184,-0.08515012621222488
3.188,-0.11052617375929684
3.192,-0.07135576680205345
3.196,-0.07219252228417782
3.2,0.11630766260014963
3.204,0.2733508086691392
3.208,0.5544635176038317
3.212,0.8059013634509632
3.216,0.9671520052770812
3.22,1.0058368955053276
3.224,0.7614205906321148
3.228,0.5146688198089102
3.232,0.2602402806675792
3.236,0.05580831245330309
3.24,-0.1312524407671425
3.244,-0.16715126539517738
3.248,-0.2431880627193599
3.2520000000000002,-0.20859418860380455
3.2560000000000002,-0.14967267152689245
3.2600000000000002,-0.09628646631804454
3.2640000000000002,-0.09202504185479177
3.2680000000000002,-0.04250072534399364
3.2720000000000002,-0.025527208438493463
3.2760000000000002,-0.01076653430992507
3.2800000000000002,-0.06916692343517654
3.2840000000000003,0.024590023335718348
3.2880000000000003,-0.06152247389311857
3.2920000000000003,-0.06399851150062444
3.2960000000000003,-0.07318002955445752
3.3000000000000003,-0.00654653930554382
3.3040000000000003,-0.042337760445627086
3.3080000000000003,-0.08483616441532327
3.3120000000000003,-0.04613968914005261
3.3160000000000003,-0.0620421102107238
3.3200000000000003,-0.0316237925449951
3.3240000000000003,-0.02985465406021784
3.3280000000000003,0.00959976543941879
3.332,0.029162805727685495
3.336,-0.10081462613490498
3.34,-0.017671509440897966
3.344,-0.0208499639629047
3.348,-0.03712982471955895
3.352,-0.08045755980875127
3.356,0.0077937908789619155
3.36,-0.038231503213826526
3.364,0.007266593062204275
3.368,-0.023394083673928097
3.372,-0.03698803779018796
3.376,-0.04369357890463673
3.38,0.024534006242609388
3.384,0.00708056542130175
3.388,0.03216502400357737
3.392,0.017004837614217765
3.396,0.0034466371474027946
3.4,-0.0007965751629109737
3.404,0.12210846828317026
3.408,0.0693611282347063
3.412,0.013910054373850355
3.416,0.07266879928780895
3.42,0.06511987318805698
3.424,0.08165239452278295
3.428,0.1074167088926508
3.432,0.14458442163636903
3.436,0.1325293178310681
3.44,0.13779022969687385
3.444,0.18925855069669298
3.448,0.16777516251758423
3.452,0.15410628410765265
3.456,0.13484485825103182
3.46,0.15568397530304298
3.464,0.20233118175421583
3.468,0.18272140523837713
3.472,0.23884216464989289
3.476,0.15771440775673193
3.48,0.1860817056105533
3.484,0.20393848920549432
3.488,0.28696331489100607
3.492,0.23938170822388594
3.496,0.2110408218679264
3.5,0.1637656079271532
3.504,0.20597177654197515
3.508,0.13931867145308188
3.512,0.17097390576785965
3.516,0.1970430413030363
3.52,0.07902805384553228
3.524,0.16451224372673437
3.528,0.13885827110200802
3.532,0.11464965572366663
3.536,0.10759314449138586
3.54,0.1395127802550017
3.544,0.16692439764681347
3.548,0.12114506333473442
3.552,0.1409273706720845
3.556,0.1365160062670634
3.56,0.08057171703074127
3.564,0.02837220278081922
3.568,0.09915037101982999
3.572,0.1491975953295782
3.576,0.08266094703463858
3.58,0.04915424966949251
3.584,0.043173900418328776
3.588,0.11280521969343368
3.592,0.01759787850494113
3.596,0.042704846449668224
3.6,0.04308350370175856
3.604,0.06380215207355991
3.608,-0.06360924773093721
3.612,-0.05887047619941461
3.616,-0.08676610287760866
3.62,-0.0457238890926739
3.624,0.022933906487935286
3.628,-0.011088541285236678
3.632,-0.006100730114190895
3.636,0.018974754686059487
3.64,-0.06608860127187606
3.644,-0.06828044739321167
3.648,-0.005093117215019725
3.652,-0.07808957001239147
3.656,-0.04850001057324621
3.66,-0.028139013400574103
3.664,-0.0065050584574073665
3.668,-0.020644324356141684
3.672,0.012064717469259075
3.676,-0.007897031214757145
3.68,-0.011406900139966699
3.684,-0.07748028144131562
3.688,0.061148637681421536
3.692,0.006728320371562853
3.696,-0.03871773823595169
3.7,-0.07839974751912779
3.704,-0.04320092504653712
3.708,-0.06036236333574421
3.712,-0.12832398804609021
3.716,-0.09414082742930203
3.72,-0.08114953933782963
3.724,-0.04281952904449841
3.728,0.059637338597289646
3.732,0.28403418073595693
3.736,0.5204880223305175
3.74,0.7275682892705313
3.744,0.9310132787158224
3.748,0.9672589430450642
3.7520000000000002,0.8260976762460898
3.7560000000000002,0.5706623902410586
3.7600000000000002,0.2888819309340752
3.7640000000000002,0.06209819541847008
3.7680000000000002,-0.12002305876307193
3.7720000000000002,-0.11648428886529867
3.7760000000000002,-0.22196752871460482
3.7800000000000002,-0.19881192818041935
3.7840000000000003,-0.15520296494863947
3.7880000000000003,-0.06456693743671146
3.7920000000000003,-0.0417004856555956
3.7960000000000003,-0.07366513121712237
3.8000000000000003,0.004738936058265579
3.8040000000000003,-0.04600699534655572
3.8080000000000003,0.009410687670569427
3.8120000000000003,0.0036566729974795223
3.8160000000000003,-0.04290378835083483
3.8200000000000003,-0.008780787551319842
3.8240000000000003,-0.031124188000998483
3.8280000000000003,-0.07673365414680205
3.8320000000000003,-0.030589292129686915
3.8360000000000003,-0.012859451321127901
3.84,-0.04275283111077598
3.844,-0.03173623083896452
3.848,-0.06216603041460275
3.852,-0.0142005644704067
3.856,-0.04442891522022886
3.86,-0.07043612410958433
3.864,-0.01442160845073373
3.868,0.004538917830621301
3.872,-0.0053496348760862815
3.876,0.012431131218009154
3.88,-0.06469638383632118
3.884,-0.050805818981660714
3.888,-0.005818951275589875
3.892,-0.0860302291083424
3.896,-0.0684157518729892
3.9,0.0035513966405858076
3.904,-0.052190915457470184
3.908,-0.029260722351346028
3.912,-0.021101505375403534
3.916,0.040017200248266646
3.92,0.09664794097622062
3.924,0.05359823104845121
3.928,-0.00017652369099898854
3.932,-0.01622180187587817
3.936,0.07820038772336811
3.94,0.08760233734568988
3.944,0.04758147149660362
3.948,0.08281997962926657
3.952,0.1257261549482838
3.956,0.07472835738744349
3.96,0.11743088236898287
3.964,0.1218683102210126
3.968,0.19490102271618134
3.972,0.1409790327236229
3.976,0.15505126157662744
3.98,0.21714297515263628
3.984,0.19959686724182532
3.988,0.20862871237228472
3.992,0.26845539223125225
3.996,0.20581104697883182
4.0,0.24914976425639412
4.0040000000000004,0.2575717733080016
4.008,0.1892512779620896
4.0120000000000005,0.20413011451780166
4.016,0.16601799648545462
4.0200000000000005,0.15638986956013157
4.024,0.2900815807976681
4.0280000000000005,0.17925365993255812
4.032,0.13688927527872735
4.0360000000000005,0.15651411319090192
4.04,0.24276829211991996
4.0440000000000005,0.13167918634108874
4.048,0.129814876840984
4.0520000000000005,0.1767300162927871
4.056,0.1624159111075766
4.0600000000000005,0.09800124933694312
4.064,0.16234191937036324
4.0680000000000005,0.1742333239068888
4.072,0.153904693836935
4.0760000000000005,0.17355950414628288
4.08,0.15451673484649542
4.0840000000000005,0.09373193681393084
4.088,0.09140794983157803
4.0920000000000005,0.10716008883717366
4.096,0.040456721508270704
4.1,0.14017056357507138
4.104,0.07944034854602906
4.108,0.08095243514270352
4.112,0.048619419862588914
4.116,0.04379970603479983
4.12,0.0028788729527229467
4.124,0.03134573061394342
4.128,-0.004822257493777965
4.132,-0.002326609329161263
4.136,-0.0168660767336515
4.14,0.00337872548091246
4.144,-0.02650875919226496
4.148,0.0017631955011191726
4.152,-0.016322103230048495
4.156,0.04184091190122697
4.16,-0.023362133359974873
4.164,-0.007384319067681659
4.168,-0.057259768787309415
4.172,0.009242150603122256
4.176,-0.018482067162118133
4.18,-0.0008580063308250944
4.184,-0.026916688138114958
4.188,-0.059667077314533634
4.192,0.0132963155518584
4.196,-0.021283006184688907
4.2,-0.029304115098934394
4.204,-0.026143480254434366
4.208,0.026395698304337693
4.212,-0.002856670188268618
4.216,-0.04465282901751524
4.22,-0.004001776887976705
4.224,-0.06803321065018118
4.228,-0.060237484843259935
4.232,-0.01897351780287493
4.236,-0.07701703341420567
4.24,-0.06113660582935314
4.244,-0.04462857526193782
4.248,0.11651238635633092
4.252,0.39635871826046337
4.256,0.5424809427241581
4.26,0.8460235404035396
4.264,0.9163135663765821
4.268,0.9360453440578715
4.272,0.8170599150275919
4.276,0.4819287816488482
4.28,0.2245449877197874
4.284,-0.011340133600497342
4.288,-0.1394932536371999
4.292,-0.2219292954716546
4.296,-0.1636610930866772
4.3,-0.1686114897937936
4.304,-0.13880223124085023
4.308,-0.09547458834768549
4.312,-0.020684354940401863
4.316,-0.043860301863199135
4.32,0.005259239514646918
4.324,-0.010517349536290637
4.328,-0.06179913476794842
4.332,-0.04355599357170492
4.336,-0.08396879416044273
4.34,-0.025959026804367083
4.344,-0.00022235605338786005
4.348,-0.02288504697383795
4.352,-0.0256820505620369
4.356,0.035542212801734085
4.36,-0.054394971419903515
4.364,0.024246132034988842
4.368,0.035463193175825906
4.372,0.019946254580752228
4.376,-0.020556395193012115
4.38,-0.0585226216869221
4.384,-0.015003798801778302
4.388,0.010087818837069409
4.392,-0.0048975789069493165
4.396,-0.07308875106662929
4.4,0.015402258433068111
4.404,0.0032791215152969157
4.408,0.038780603529732005
4.412,-0.0015074866056283063
4.416,-0.0026490540758047102
4.42,-0.014134798247787926
4.424,0.04232263591950573
4.428,0.0387967394311178
4.432,-0.014704430291769204
4.436,0.022701976233451618
4.44,0.06047769626716146
4.444,0.03212239914117622
4.448,0.04601480775967156
4.452,0.05290772439292623
4.456,0.08346119487377832
4.46,0.10299711849186544
4.464,0.09722793100984709
4.468,0.11574535980585046
4.472,0.1550678751573805
4.476,0.17641804357852042
4.48,0.1353451261736464
4.484,0.11063339574726336
4.488,0.19617656215476853
4.492,0.1724315005306048
4.496,0.19760570604516062
4.5,0.19012941715140763
4.5040000000000004,0.25971020020931923
4.508,0.2175133465774074
4.5120000000000005,0.177113615500141
4.516,0.19370389613728464
4.5200000000000005,0.24073580372141812
4.524,0.2953527555941796
4.5280000000000005,0.23852624407756717
4.532,0.24715401482098995
4.5360000000000005,0.3058318032667735
4.54,0.24680829236218654
4.5440000000000005,0.24012935826361875
4.548,0.2851326595416259
4.5520000000000005,0.28427453756369836
4.556,0.2674057185151446
4.5600000000000005,0.26918608540846706
4.564,0.2369629715195875
4.5680000000000005,0.23061697507474024
4.572,0.26514083913339187
4.5760000000000005,0.2143351414977488
4.58,0.13640812169428593
4.5840000000000005,0.16228022883748713
4.588,0.24087391393786622
4.5920000000000005,0.11745265439382357
4.596,0.16575263561522324
4.6000000000000005,0.12843297722418154
4.604,0.13679516253872717
4.6080000000000005,0.03493252914753801
4.612,0.03557246871762997
4.616,0.04691813890816453
4.62,0.1274911953711417
4.624,0.0452808251422167
4.628,0.05643098066886527
4.632,0.028841948090858036
4.636,-0.00864715379887468
4.64,0.010514854481750267
4.644,-0.04440712888274576
4.648,-0.03272449043877464
4.652,-0.01490359375441827
4.656,-0.019012492386292504
4.66,0.03878769772595847
4.664,-0.010929464783531207
4.668,0.005635901073652787
4.672,0.019528939002954278
4.676,-0.010790145122209743
4.68,0.03273575803771025
4.684,0.031499709140801094
4.688,0.05499772500039403
4.692,-0.02432062957223493
4.696,-0.0027141497460271987
4.7,0.02961353011145824
4.704,-0.02071019375458678
4.708,-0.02537681681297415
4.712,0.013753498979089179
4.716,-0.06208069597768969
4.72,-0.032660771561265595
4.724,-0.025186529498996083
4.728,-0.02980943379766251
4.732,-0.029538424645834636
4.736,-0.07249210144423598
4.74,0.03473165085286443
4.744,0.23724342813962263
4.748,0.33221762578676994
4.752,0.6741213337410495
4.756,0.9275878927697262
4.76,1.006272957526634
4.764,0.9340252806797413
4.768,0.714868215591409
4.772,0.43420006372220477
4.776,0.28066763693195407
4.78,0.03364595740357814
4.784,-0.08756834586846622
4.788,-0.18570923518285046
4.792,-0.18326484925766695
4.796,-0.15471081446415308
4.8,-0.09699935938222302
4.804,-0.023370020165117997
4.808,-0.07234113590107483
4.812,0.044647086787364745
4.816,0.05015479473149226
4.82,-0.029651438128108047
4.824,0.006013995424645853
4.828,0.032454512019718905
4.832,-0.007125092159363254
4.836,0.0007099080461245785
4.84,0.054924060123307215
4.844,0.025924907409396285
4.848,0.03738081849469406
4.852,0.03981173909542457
4.856,0.039881183798817915
4.86,-0.01350307955354165
4.864,-0.002218198311306662
4.868,0.020838577538292005
4.872,0.03886548607524075
4.876,-0.024219801760582492
4.88,-0.01656508288462692
4.884,0.019562835028211756
4.888,0.018706490009946404
4.892,-0.010220232470179183
4.896,0.025574817887396475
4.9,0.07455824890331085
4.904,0.030089779965911397
4.908,0.03174800435723127
4.912,4.902438951374932e-05
4.916,0.04728092273925482
4.92,0.07052108150729547
4.924,0.02928962297344352
4.928,0.05868880506188401
4.932,0.05270430801634571
4.936,0.053116543184092924
4.94,0.028147714605905566
4.944,0.07751024561155147
4.948,0.05954918566699472
4.952,0.15057298186322585
4.956,0.10077854404755035
4.96,0.15249150738179656
4.964,0.06507224914224545
4.968,0.14555106988350772
4.972,0.21178037892754248
4.976,0.16691078682409388
4.98,0.1475006281073459
4.984,0.22119962980342922
4.988,0.1683653721004961
4.992,0.19034934586703864
4.996,0.22487826843081798
5.0,0.28651696325294695
5.0040000000000004,0.2986102261396842
5.008,0.24986242646635604
5.0120000000000005,0.2018375520437306
5.016,0.24652128171092308
5.0200000000000005,0.2624598258618099
5.024,0.22337167781077558
5.0280000000000005,0.271935815045633
5.032,0.2654629538248332
5.0360000000000005,0.2537039931626712
5.04,0.2327317954880908
5.0440000000000005,0.23844970701858095
5.048,0.2606109040685904
5.0520000000000005,0.25508091132304694
5.056,0.2725139870263973
5.0600000000000005,0.23171203490648162
5.064,0.2437960833800482
5.0680000000000005,0.251462183679864
5.072,0.24792501952836893
5.0760000000000005,0.2696263608923165
5.08,0.24452250516201585
5.0840000000000005,0.18661374709347658
5.088,0.1896491528419718
5.0920000000000005,0.20222470924871164
5.096,0.19385721123826727
5.1000000000000005,0.13181060732273264
5.104,0.17038074200895698
5.1080000000000005,0.12640686138988647
5.112,0.04850664722381909
5.1160000000000005,0.05590269885811583
5.12,0.06312795790827783
5.124,0.04316215304167596
5.128,0.024108211310625415
5.132,0.0713924713173453
5.136,0.04486496735829436
5.14,0.051560666961556936
5.144,-0.030311674375171613
5.148,0.0007487205160342271
5.152,0.023077057173881484
5.156,-0.005266231331640829
5.16,0.08125387106167276
5.164,0.008305256021051475
5.168,0.07224866214714207
5.172,0.03879637430603221
5.176,0.028727962581435285
5.18,-0.009881975687537223
5.184,0.031898428368255405
5.188,0.013861918277088946
5.192,0.03751028220299246
5.196,0.04961974492136585
5.2,0.02036501904967289
5.204,-0.0004789679741894898
5.208,0.06081080712266131
5.212,-0.0801715122850331
5.216,0.06529168460723617
5.22,-0.0019480926056946717
5.224,-0.035572218873134206
5.228,-0.04715479288795406
5.232,-0.0072173821203461025
5.236,0.05852316322660329
5.24,0.0922515842322477
5.244,0.2869641129177583
5.248,0.499920731450146
5.252,0.8336325683902578
5.256,0.9420730245659336
5.26,1.0470302350351381
5.264,0.8481574585382313
5.268,0.6839879455802279
5.272,0.3897909420152963
5.276,0.11879699799695768
5.28,0.002887924735562677
5.284,-0.16198983505754677
5.288,-0.11017821039221978
5.292,-0.1610963716140682
5.296,-0.10914007434647667
5.3,-0.04140115021199263
5.304,0.013570494029779539
5.308,0.017050225367818875
5.312,0.0032248702863127638
5.316,0.024707243767862545
5.32,0.07554793410072866
5.324,0.00768794859032175
5.328,0.0329713812581826
5.332,0.0035992591456099204
5.336,0.004587513372313355
5.34,0.021194141959386594
5.344,-0.04028703334444286
5.348,0.03198759963036855
5.352,-0.019926947311848353
5.356,-0.03146744818154685
5.36,-0.014964271685299173
5.364,0.020325259135972485
5.368,0.01814767506381
5.372,-0.0045250724589251945
5.376,0.04625171779489472
5.38,0.044903588200646986
5.384,0.0157044890511806
5.388,0.04686302391170545
5.392,-0.009834101220894044
5.396,0.011686237449342232
5.4,0.08605937856129924
5.404,0.0982504193899996
5.408,0.09062907170118736
5.412,0.02038608313499142
5.416,0.09787752790191097
5.42,0.10940321273993589
5.424,0.022728086603634186
5.428,0.05726930688713159
5.432,0.10952729275034136
5.436,0.1089670167277484
5.44,0.07287636827759414
5.444,0.08364062536981075
5.448,0.096821698505131
5.452,0.08976302889300025
5.456,0.12677452751563287
5.46,0.12262886283180928
5.464,0.14330089301231894
5.468,0.13211412099786485
5.472,0.18058508393591813
5.476,0.15769564704617278
5.48,0.17631196678684552
5.484,0.14217408854058683
5.488,0.2171078824406851
5.492,0.2473105097097711
5.496,0.20306098297091882
5.5,0.26172300571867063
5.5040000000000004,0.261520820319952
5.508,0.23291736866287935
5.5120000000000005,0.2165970767097372
5.516,0.2735777459837485
5.5200000000000005,0.3241065175066456
5.524,0.2814717880374971
5.5280000000000005,0.26203885045250613
5.532,0.2270898797654094
5.5360000000000005,0.287090190039429
5.54,0.28076860366066014
5.5440000000000005,0.2654651892468832
5.548,0.2623666719140866
5.5520000000000005,0.3272745589720188
5.556,0.25876308780533996
5.5600000000000005,0.21592177125000317
5.564,0.22872446942440877
5.5680000000000005,0.2595103243304977
5.572,0.2518899145811002
5.5760000000000005,0.21501181411596712
5.58,0.1903729694372383
5.5840000000000005,0.18705888049292335
5.588,0.1281553123513022
5.5920000000000005,0.15816949353303408
5.596,0.14687670026917451
5.6000000000000005,0.10437829068218445
5.604,0.07871844766239466
5.6080000000000005,0.1156539144173473
5.612,0.03441188817835246
5.6160000000000005,0.11069518565993056
5.62,0.05599028081464283
5.6240000000000006,0.0675938326600669
5.628,0.03160441438259197
5.632,-0.021673095512164613
5.636,0.014291096507145391
5.64,0.0602563890405943
5.644,0.011858696062571658
5.648,-0.0030684839994782227
5.652,0.05344546554871661
5.656,0.026340816378782383
5.66,0.03294270737028717
5.664,0.06338246722824836
5.668,0.017021863025022108
5.672,0.010753931379353349
5.676,0.017983479238210538
5.68,0.017130741438931424
5.684,0.04819015914366513
5.688,0.055900457577996505
5.692,0.03880091874145834
5.696,0.002730075723270619
5.7,-0.009524183861818938
5.704,0.008282784639191881
5.708,0.02578250245306267
5.712,0.00017233568749923378
5.716,0.007591592738256436
5.72,-0.0006300645992780608
5.724,0.06488593864367664
5.728,0.16353981377981794
5.732,0.3352487181660106
5.736,0.6188298164119502
5.74,0.8511032329081888
5.744,0.9980412094017475
5.748,1.0591625403260074
5.752,0.8417521353480244
5.756,0.600045896119982
5.76,0.28191717168775404
5.764,0.11933128960222217
5.768,-0.08076545830991559
5.772,-0.14855575976658128
5.776,-0.17980678501704
5.78,-0.1494417942639998
5.784,-0.09954635726534845
5.788,-0.04676508033638535
5.792,-0.03317538994530856
5.796,0.006508914325968555
5.8,-0.02297939040328968
5.804,0.03994864844452346
5.808,0.04646784195586191
5.812,-0.0428838737768613
5.816,0.04195303987579005
5.82,0.033296638220393616
5.824,0.012528039813688704
5.828,-0.01706882912445216
5.832,0.07399337135346432
5.836,0.029850295655972494
5.84,0.04794767563830916
5.844,-0.002571146299708775
5.848,0.03357758235783418
5.852,0.03573773141652071
5.856,0.0338357862476321
5.86,0.02613439875507768
5.864,0.018881005306758087
5.868,0.08409832040228822
5.872,0.06683505597401074
5.876,0.04551025978317297
5.88,-0.004124221664982684
5.884,0.02816770717211762
5.888,0.057432371398318624
5.892,0.009154580836964427
5.896,0.04373615547469906
5.9,0.07374629865649393
5.904,0.08356292567620531
5.908,0.035453677354387
5.912,0.021041427308308193
5.916,0.10993270179022355
5.92,0.047681413457374644
5.924,0.13482069746600697
5.928,0.05064489590529081
5.932,0.13033420802005125
5.936,0.07377105881652121
5.94,0.1389064426776649
5.944,0.13003513123321264
5.948,0.16301182520222085
5.952,0.16116414796482606
5.956,0.16682635844515353
5.96,0.19512844038761934
5.964,0.19821850473799965
5.968,0.1881960059489867
5.972,0.22250417315139773
5.976,0.22783328824424523
5.98,0.23292807737973403
5.984,0.24969594724337194
5.988,0.2997403393770024
5.992,0.25213532133965516
5.996,0.29873274528878296
6.0,0.236988524681613
6.0040000000000004,0.266636584467527
6.008,0.31566980450687687
6.0120000000000005,0.26928975011377765
6.016,0.31120914673246974
6.0200000000000005,0.27812690618286573
6.024,0.29138639163689095
6.0280000000000005,0.23611493103697734
6.032,0.2811056961916307
6.0360000000000005,0.2662632822033041
6.04,0.24831590772208312
6.0440000000000005,0.19971423736606603
6.048,0.23078071189508184
6.0520000000000005,0.21307166719849197
6.056,0.2260755762078102
6.0600000000000005,0.2495545709219198
6.064,0.24286178705872571
6.0680000000000005,0.2410505883151579
6.072,0.20709943067883668
6.0760000000000005,0.18683864512630827
6.08,0.17257553959681038
6.0840000000000005,0.1159415474371987
6.088,0.1400435809334039
6.0920000000000005,0.13071772887937172
6.096,0.11938056710843392
6.1000000000000005,0.0792467584379921
6.104,0.10424218089853737
6.1080000000000005,0.11043157908873938
6.112,0.05620518703149036
6.1160000000000005,0.038517218758678355
6.12,0.0721146272447775
6.1240000000000006,0.0008016411933611037
6.128,0.017206739245633325
6.132000000000001,0.029917373792616324
6.136,0.027497547192176626
6.140000000000001,0.06579967034635399
6.144,0.03281787854489643
6.148,0.03272930105526743
6.152,0.031272077664068296
6.156,0.024925151131307534
6.16,0.0023490229306755116
6.164,-0.0029310661711487267
6.168,0.057741749302444204
6.172,0.025609147239940237
6.176,0.06116781774640255
6.18,0.00789355914260288
6.184,0.028420804710150526
6.188,0.04798222400031854
6.192,-0.01289044933740936
6.196,-0.0009240155356008122
6.2,0.008762273618941994
6.204,0.015520426436171322
6.208,-0.03015606511638447
6.212,-0.03648250596291737
6.216,-0.005011479089625584
6.22,-0.05051436942605307
6.224,-0.007765942221747698
6.228,0.19680109962598896
6.232,0.3374353196788711
6.236,0.5840015901961922
6.24,0.8491109224464399
6.244,1.0006710427146748
6.248,0.9383518966084883
6.252,0.877570899544642
6.256,0.6089679190493466
6.26,0.3126512837986439
6.264,0.06985277609783909
6.268,-0.052045716033755296
6.272,-0.14374491257414562
6.276,-0.17023947676304382
6.28,-0.19444540327395987
6.284,-0.06848794257538407
6.288,-0.062277825736222786
6.292,-0.004852264040646186
6.296,-0.06380348193381873
6.3,-0.008346287636139833
6.304,-0.019008344576494696
6.308,0.03348988370808255
6.312,0.009264037633381137
6.316,0.027124983133031105
6.32,0.007078998751363107
6.324,0.03390306097497852
6.328,0.009163671620482094
6.332,-0.02442900827940326
6.336,0.03670030252808529
6.34,0.05110205001638028
6.344,0.004862632604296606
6.348,0.08931110880487489
6.352,-0.04741422443833697
6.356,0.07493646083931363
6.36,0.04770431604304675
6.364,0.0015733849357346692
6.368,0.0546442387881582
6.372,0.025430295454136467
6.376,0.011688373054164303
6.38,-0.01824210110285198
6.384,0.0022165460543008796
6.388,0.019674511072871097
6.392,0.000684110145522155
6.396,0.01736533772082671
6.4,0.06502887807513097
6.404,0.019987414129797102
6.408,0.04920914669146777
6.412,0.025899998404860777
6.416,0.03043536692026126
6.42,0.02483299089318923
6.424,0.013038966858154137
6.428,0.06905838436110681
6.432,0.04601243814748507
6.436,0.04388086125790463
6.44,0.09621814007115831
6.444,0.07824792331294686
6.448,0.06850105854498377
6.452,0.20205724427295463
6.456,0.18321574814568217
6.46,0.15177902928965628
6.464,0.15860718141660451
6.468,0.17151743402341776
6.472,0.21611184039663794
6.476,0.17960217896633587
6.48,0.24179915994900736
6.484,0.23531916494490548
6.488,0.20051152889246363
6.492,0.24581064045517764
6.496,0.2440347878389455
6.5,0.25120831444922187
6.5040000000000004,0.27542512456389245
6.508,0.30653836980910215
6.5120000000000005,0.18067728967544677
6.516,0.17359158552198894
6.5200000000000005,0.35029167829421226
6.524,0.3170276632896712
6.5280000000000005,0.26736371390922786
6.532,0.24177643205666433
6.5360000000000005,0.24012570212660891
6.54,0.1790566955550999
6.5440000000000005,0.16259966510620913
6.548,0.15328339609895325
6.5520000000000005,0.22553929651857424
6.556,0.1858573009473808
6.5600000000000005,0.1369909443616591
6.564,0.19053575314649834
6.5680000000000005,0.18410637277308994
6.572,0.21117042581833764
6.5760000000000005,0.17659129298545323
6.58,0.17885191912598053
6.5840000000000005,0.1486340222430799
6.588,0.133100655904435
6.5920000000000005,0.06628496954293342
6.596,0.09259275100941604
6.6000000000000005,0.14108636963086996
6.604,0.11402457786148734
6.6080000000000005,0.10749767063558535
6.612,0.06858170119846234
6.6160000000000005,0.07344316043690002
6.62,0.09910678895996433
6.6240000000000006,0.04492209153683257
6.628,-0.01585678568844822
6.632000000000001,0.041538872485460746
6.636,0.03252333127365254
6.640000000000001,-0.00684198399334502
6.644,0.010071877627999964
6.648000000000001,0.01877938500457702
6.652,0.020466987510047264
6.656000000000001,0.0066319264374196454
6.66,0.002554728903356786
6.664,-0.05664332270724522
6.668,0.011213570238907395
6.672,-0.010298424654862321
6.676,-0.0009312308540732469
6.68,0.020226822526662795
6.684,-0.0380687857035811
6.688,0.011778106154735563
6.692,0.01820878571269277
6.696,0.024889144782861094
6.7,0.03625771274408901
6.704,0.049762301357858627
6.708,-0.04947380151361502
6.712,-0.004676243417007129
6.716,-0.005088422510626654
6.72,-0.0016025462440889034
6.724,-0.023921220800425295
6.728,-0.0062375565601841335
6.732,-0.09865916981865891
6.736,-0.06678831608787325
6.74,-0.020749074943056604
6.744,-0.027975533104114984
6.748,0.037833263354923666
6.752,0.24866469256271187
6.756,0.43738766099929116
6.76,0.6720431568061546
6.764,0.8711663819110778
6.768,0.9817640128803684
6.772,0.9129554767992595
6.776,0.69146533098981
6.78,0.42532579617944516
6.784,0.16341893324154516
6.788,-0.04558369007546107
6.792,-0.14249048240644982
6.796,-0.1545901566331479
6.8,-0.20459272767827574
6.804,-0.1146207958467122
6.808,-0.09884818176216272
6.812,-0.029001857326749224
6.816,-0.0353460160583073
6.82,-0.014360805472110903
6.824,-0.020824178122507187
6.828,-0.08622197343489817
6.832,0.0376716889409638
6.836,0.03491178051746556
6.84,-0.003835245731471714
6.844,-0.035094227599255394
6.848,-0.010370993726079166
6.852,0.01114687357230546
6.856,-0.019467123486585934
6.86,-0.04374590090006908
6.864,-0.045310270975668275
6.868,0.012821990200127144
6.872,-0.02562396296574107
6.876,-0.062648124379936
6.88,-0.018277620537725636
6.884,-0.0347419994479653
6.888,0.0320744219312519
6.892,-0.018098636709111292
6.896,0.013798338101073473
6.9,-0.022540507654371388
6.904,0.04199412056292351
6.908,-0.0001507818879006289
6.912,-0.04824762199409858
6.916,0.003605360055127287
6.92,0.029767959471608457
6.924,0.008064506931977394
6.928,0.03424996584603858
6.932,0.03160090800862077
6.936,0.04530223769198008
6.94,0.06026980836949751
6.944,0.03169937314397333
6.948,0.08095166055602132
6.952,0.061115456948907465
6.956,0.0717413833555842
6.96,0.07811979206967895
6.964,0.11136389210601216
6.968,0.05663720060360123
6.972,0.14484619387439315
6.976,0.06594712039331002
6.98,0.11311637505123459
6.984,0.10751759274031145
6.988,0.12269911614221764
6.992,0.12539405631901912
6.996,0.14035794700886103
7.0,0.16108941558985684
7.0040000000000004,0.22121293095791103
7.008,0.22379361943976175
7.0120000000000005,0.22692801256139858
7.016,0.2348542277594058
7.0200000000000005,0.2799505582007655
7.024,0.1685101675576822
7.0280000000000005,0.21892875510653476
7.032,0.21092532186904303
7.0360000000000005,0.23215798060456314
7.04,0.21641770764588653
7.0440000000000005,0.2163894425583755
7.048,0.1956476115809472
7.0520000000000005,0.2094102836384553
7.056,0.27236523477317365
7.0600000000000005,0.1982433772373875
7.064,0.18509984814026664
7.0680000000000005,0.11439021355373032
7.072,0.12516578820051166
7.0760000000000005,0.09542502393805032
7.08,0.14823341596126752
7.0840000000000005,0.12871422278133796
7.088,0.10287123344546628
7.0920000000000005,0.045870779002474785
7.096,0.07502792867639495
7.1000000000000005,0.1501377938109572
7.104,0.14666101871843049
7.1080000000000005,0.12061861517968184
7.112,0.07396896564074461
7.1160000000000005,0.0732796466631194
7.12,0.07211672514990092
7.1240000000000006,0.07418732710336667
7.128,0.06221292802540428
7.132000000000001,0.09558783733310552
7.136,0.08104344073817246
7.140000000000001,0.13243198667018638
7.144,0.04053149977376624
7.148000000000001,0.08245417835418546
7.152,0.11241958019357126
7.156000000000001,0.08891657278166154
7.16,0.07544191711427489
7.164000000000001,0.05061185763863173
7.168,0.05771007954464073
7.172,0.04569152947997466
7.176,0.0630565112991413
7.18,-0.022502686008806373
7.184,0.02291354123439284
7.188,0.016070672702215183
7.192,0.002550946811952514
7.196,-0.0023807407662203954
7.2,0.009856009330415744
7.204,-0.06786702950416089
7.208,-0.05550299108857381
7.212,-0.006073023145147901
7.216,-0.002201425394607536
7.22,-0.016664217593624298
7.224,-0.016243976680464886
7.228,0.02817625037923674
7.232,-0.03693538667206145
7.236,0.005643776755828651
7.24,-0.08220800136659018
7.244,-0.06452257776014873
7.248,-0.03238071246957941
7.252,0.003849733545253895
7.256,0.032972795426209366
7.26,-0.04208694435151979
7.264,-0.03942507995483029
7.268,-0.00831018411733422
7.272,-0.037284583369690094
7.276,-0.04652125459369566
7.28,-0.1291877876145932
7.284,-0.08443391534988287
7.288,-0.05691083989443015
7.292,-0.12743046260255514
7.296,0.004428901153246921
7.3,0.1858558356081243
7.304,0.36605876087915395
7.308,0.6558560827425319
7.312,0.7932605783651435
7.316,0.9479340087946672
7.32,0.951700540652951
7.324,0.7619056789172833
7.328,0.5040924488466842
7.332,0.21259198809043195
7.336,-0.0003472772427533556
7.34,-0.07774322807687187
7.344,-0.22927270389982307
7.348,-0.18570595005014418
7.352,-0.17739762304488563
7.356,-0.10464599645595497
7.36,-0.10981004770675593
7.364,-0.05453055321283414
7.368,0.027532657867351117
7.372,-0.028534616899772283
7.376,0.019792642181310837
7.38,-0.039350255902750125
7.384,0.017110680022057113
7.388,-0.017150320651462568
7.392,0.0018490628176680117
7.396,-0.09925351596335122
7.4,-0.09085389596851087
7.404,0.016049894597063682
7.408,-0.009687768022529014
7.412,-0.051689249358081474
7.416,-9.789626250230818e-05
7.42,-0.015842501964066225
7.424,-0.015909469460972284
7.428,-0.05607068817849578
7.432,-0.027058820964036827
7.436,-0.03490643336448509
7.44,-0.023028010466631527
7.444,-0.021239491220529216
7.448,-0.016720635259248037
7.452,-0.0033925557748481945
7.456,0.012728454529746688
7.46,-0.028753406250287515
7.464,-0.025087860770155263
7.468,-0.011185156888608369
7.472,-0.015598851021556927
7.476,-0.04826061375709059
7.48,0.008900292018974994
7.484,-0.02121694360801535
7.488,-0.031118243973364566
7.492,-0.053363300066373194
7.496,-0.0019651259168300926
7.5,0.028176033123869192
7.5040000000000004,0.025994422162259355
7.508,0.11889183681887247
7.5120000000000005,0.012285296890755054
7.516,0.07078093790018743
7.5200000000000005,0.06151286787795579
7.524,0.05702928816366985
7.5280000000000005,0.051593878256911564
7.532,0.13457995626133143
7.5360000000000005,0.1334896626678509
7.54,0.18427258418396933
7.5440000000000005,0.13821481284599693
7.548,0.1550873864004107
7.5520000000000005,0.1930666037307774
7.556,0.2099280664435892
7.5600000000000005,0.10992220240246796
7.564,0.21178136366075992
7.5680000000000005,0.20877457146580503
7.572,0.24214387338685062
7.5760000000000005,0.16008368929832026
7.58,0.22245652804916494
7.5840000000000005,0.2396201344499284
7.588,0.15254551556032575
7.5920000000000005,0.20331820902175923
7.596,0.21601302378760673
7.6000000000000005,0.15778506819475607
7.604,0.21551730110067494
7.6080000000000005,0.1948475552778813
7.612,0.18095835241852773
7.6160000000000005,0.1990399710411382
7.62,0.23150171885158172
7.6240000000000006,0.17181218630335698
7.628,0.13784234021923214
7.632000000000001,0.12120011633293096
7.636,0.1303449264333177
7.640000000000001,0.1337531838434891
7.644,0.15709909283145734
7.648000000000001,0.09959796304741804
7.652,0.08491642686339136
7.656000000000001,0.0710432243626953
7.66,0.11147434863097558
7.664000000000001,0.04620124063148169
7.668,0.07843206935549266
7.672000000000001,0.06508788315171082
7.676,0.04247673016108263
7.68,-0.002613027617305499
7.684,0.034617068160276376
7.688,-0.031099534503564164
7.692,0.00902601373957197
7.696,-0.01978353437239004
7.7,-0.017518500198854314
7.704,0.0037658653821722367
7.708,0.014015947861978
7.712,-0.023039207842616344
7.716,-0.015519810952839802
7.72,-0.03586375126863882
7.724,-0.018623254663910987
7.728,-0.04405234143869537
7.732,-0.0591475783705529
7.736,0.028586422570976835
7.74,-0.06186285106591975
7.744,-0.021060322709847486
7.748,-0.08200708599453206
7.752,-0.030959303771305582
7.756,0.0014685530249791898
7.76,-0.050377481302639276
7.764,-0.042940848862695384
7.768,-0.07125102894907204
7.772,-0.005877592506127377
7.776,-0.047949603611198065
7.78,-0.09034454881524996
7.784,-0.1380706035979268
7.788,-0.0761999024502518
7.792,-0.10752322540193952
7.796,-0.012279226629647581
7.8,0.013906651121295029
7.804,0.21527785029823995
7.808,0.5226312277254923
7.812,0.7536831756267177
7.816,0.870700291304271
7.82,0.9546814155312476
7.824,0.8636787525016718
7.828,0.5481570844947646
7.832,0.2818635462922834
7.836,0.09173423397919304
7.84,-0.09032998283094396
7.844,-0.18310881291617082
7.848,-0.20794066280595475
7.852,-0.21435568466904584
7.856,-0.14089819180479274
7.86,-0.1615227942923923
7.864,-0.09955094694648645
7.868,-0.046499382000402406
7.872,-0.04261645791507068
7.876,-0.04045676425151654
7.88,-0.03283683688161889
7.884,0.004887076829992974
7.888,-0.01056069513337939
7.892,0.009147503914575292
7.896,-0.053944596267823976
7.9,-0.0016542856825291254
7.904,-0.04562863133856306
7.908,-0.02053625422201634
7.912,-0.06698461185561856
7.916,-0.020068693872440084
7.92,0.016231478560071642
7.924,-0.0339152699936648
7.928,0.029014899780587272
7.932,-0.03324144075515701
7.936,0.010583367675074284
7.94,-0.05858451321414911
7.944,0.005928628274280291
7.948,-0.019066980209044362
7.952,-0.019727849230375266
7.956,-0.019022328170412828
7.96,-0.03446101819325107
7.964,-0.033754179621656874
7.968,0.04546048553110513
7.972,-0.05942451989538913
7.976,0.024428074955288252
7.98,-0.06263160515824764
7.984,0.005775640412026443
7.988,0.02759934574844305
7.992,0.014897679093948946
7.996,-0.02675201290406358
8.0,0.03609342590642828
8.004,0.07767650467391887
8.008000000000001,0.048221652427815766
8.012,0.025740652951618283
8.016,0.06259430873567158
8.02,0.06444191931887044
8.024000000000001,0.07630130398540401
8.028,0.0979333884500599
8.032,0.10487355077581988
8.036,0.14727054591550978
8.040000000000001,0.19428608401053485
8.044,0.11141276770642389
8.048,0.14776291221818771
8.052,0.22299574387905138
8.056000000000001,0.1813209569814089
8.06,0.21820235609817157
8.064,0.2053460256579685
8.068,0.1970230776366351
8.072000000000001,0.2016029281834691
8.076,0.21295193973941426
8.08,0.21781758097341855
8.084,0.16101697599226433
8.088000000000001,0.2465589319063671
8.092,0.20598254218433792
8.096,0.2364466497070113
8.1,0.18962553965790188
8.104000000000001,0.23536466943618553
8.108,0.21658161159152903
8.112,0.173801524338293
8.116,0.24137591690008864
8.120000000000001,0.20398531437207942
8.124,0.18947826801722842
8.128,0.16561419425904492
8.132,0.11937338424936242
8.136000000000001,0.1713742916504424
8.14,0.2032524031849866
8.144,0.1449484042558485
8.148,0.13469699463807763
8.152000000000001,0.10593716956732435
8.156,0.03901241718527302
8.16,0.060995615438379454
8.164,0.06733966753192269
8.168000000000001,0.030563320171478024
8.172,0.011272599298798387
8.176,0.03437667169377056
8.18,0.0025244072452909965
8.184000000000001,-0.03191311767199278
8.188,-0.05089326317564084
8.192,-0.04254774917136368
8.196,-0.036314012656088815
8.2,-0.010608394955684466
8.204,0.006483570077445756
8.208,0.002604503112718839
8.212,-0.0390228465582046
8.216,-0.08858346675575983
8.22,-0.05235010407800386
8.224,-0.028843285696340405
8.228,0.03142036421234902
8.232,-0.018131692994892763
8.236,0.0028796990392461093
8.24,-0.010695068379533533
8.244,-0.04860300927670951
8.248,-0.023455110152042914
8.252,0.0010318685612513596
8.256,-0.02508073288174462
8.26,-0.02657562828493463
8.264,-0.07068163769964952
8.268,-0.08418282387110737
8.272,-0.04132710197778952
8.276,-0.07390195445596681
8.28,-0.14966561288966423
8.284,-0.035388314653400726
8.288,-0.06987238826671323
8.292,-0.04116891076045267
8.296,0.015664534286830546
8.3,0.23821008430515953
8.304,0.4777276051971025
8.308,0.7295560806478265
8.312,0.8514653942341723
8.316,0.9793190446723858
8.32,0.8278071405918487
8.324,0.6753341785223862
8.328,0.3986449272032501
8.332,0.16051749883998692
8.336,-0.040707025692398896
8.34,-0.14588349377810203
8.344,-0.17911496835891813
8.348,-0.26000041040753313
8.352,-0.19151352839064484
8.356,-0.1038362140544376
8.36,-0.055070597882928354
8.364,-0.03131545000676098
8.368,-0.05672200809186449
8.372,-0.02704608976391809
8.376,0.004593643479868615
8.38,-0.06355762265307761
8.384,0.0370868077304781
8.388,-0.05044001408232775
8.392,-0.04097547721516896
8.396,-0.07167014080630935
8.4,-0.06287088299630786
8.404,0.0006516435972489226
8.408,-0.020837234227287404
8.412,-0.0361354406706281
8.416,-0.0836686807979942
8.42,-0.029213122540234508
8.424,-0.003722224527694055
8.428,-0.01840174798733766
8.432,-0.06821887454083018
8.436,0.028395120086801666
8.44,-0.008693484575455272
8.444,-0.07250092254616508
8.448,-0.0035839299142769246
8.452,0.023839468729392133
8.456,-0.0015978016170293584
8.46,-0.01708081856485779
8.464,-0.06080465902428023
8.468,0.006262324335149599
8.472,0.0015362637996859858
8.476,0.010351321357367374
8.48,-0.015869284031365442
8.484,0.004093292012886279
8.488,0.015583920139410519
8.492,0.05163242219425063
8.496,0.03469906640121205
8.5,0.03634265037138463
8.504,0.06517698683054153
8.508000000000001,0.1073191705591306
8.512,0.013128854004686628
8.516,0.08046767801767503
8.52,0.12151976268029271
8.524000000000001,0.14028405025889545
8.528,0.08511673199763023
8.532,0.11686968840893677
8.536,0.15033323534622522
8.540000000000001,0.14598980548852616
8.544,0.17112879219125546
8.548,0.1433023681661968
8.552,0.22344225061276843
8.556000000000001,0.22222580113197676
8.56,0.21610990553621487
8.564,0.21187196606216566
8.568,0.23827414719537293
8.572000000000001,0.18667566001437097
8.576,0.2585463811396845
8.58,0.23899691936327794
8.584,0.25366001329058074
8.588000000000001,0.23102574855677277
8.592,0.2167289928118461
8.596,0.10434203232283513
8.6,0.20801274720290874
8.604000000000001,0.1548426101881554
8.608,0.18852538122817794
8.612,0.17463201048289403
8.616,0.15791813834478569
8.620000000000001,0.15991923231219668
8.624,0.08630737185140439
8.628,0.07699289760618928
8.632,0.047421965713718
8.636000000000001,0.08427366812630499
8.64,0.14747392016633865
8.644,0.1254640823615553
8.648,0.10150438131486356
8.652000000000001,0.1090507088996099
8.656,0.14903797813326308
8.66,0.09593709429911033
8.664,0.09047179980243583
8.668000000000001,0.14821803387807364
8.672,0.16145349461371933
8.676,0.0990825230377354
8.68,0.09540782385471307
8.684000000000001,0.06423834584706337
8.688,0.10145774849884762
8.692,0.043385461101710904
8.696,0.07010999475765445
8.700000000000001,-0.022260439815661313
8.704,-0.0028955057046818784
8.708,0.0011878887828377241
8.712,-0.040292711830670194
8.716,-0.02641927871974737
8.72,0.02942846114909185
8.724,0.055928520300857244
8.728,-0.03718557678319724
8.732,0.01759853162056908
8.736,-0.012838277945188128
8.74,-0.023317230751817936
8.744,-0.007937917526468878
8.748,0.002135117902925091
8.752,-0.05643503105215224
8.756,0.011324446661932743
8.76,-0.07432992054715754
8.764,-0.04781899512879484
8.768,-0.04656357844174255
8.772,0.004090301008520036
8.776,0.049326078693020255
8.78,-0.029426269424650132
8.784,0.010098584186291882
8.788,-0.006158871280587122
8.792,-0.06509846480624715
8.796,-0.05884817696221288
8.8,-0.010781040233926679
8.804,-0.05301995866113271
8.808,-0.013060182466274897
8.812,-0.04726167907455486
8.816,-0.08873157635375939
8.82,-0.08866175495350696
8.824,-0.016966360492671053
8.828,0.1293048650473569
8.832,0.3784637734635965
8.836,0.6335276125160639
8.84,0.8599313995209299
8.844,0.964022839794239
8.848,0.8959149718306982
8.852,0.765657056292746
8.856,0.4857492104987738
8.86,0.17592619523038172
8.864,0.010857443923141199
8.868,-0.2017630850900437
8.872,-0.2081593840290002
8.876,-0.23051719002334736
8.88,-0.20123541055975652
8.884,-0.0707982424605951
8.888,-0.05268483572613841
8.892,-0.010881212370262443
8.896,-0.05614072561142855
8.9,-0.01977785974023653
8.904,0.03588704201019649
8.908,-0.05130915976455605
8.912,-0.019273071937327517
8.916,-0.07647597065471837
8.92,0.009544930472396611
8.924,0.026126104929886613
8.928,0.034176609988679905
8.932,0.053140741201576684
8.936,-0.005622224752152117
8.94,0.003229400022657938
8.944,-0.05093600846637877
8.948,-0.01752198263010444
8.952,-0.014292550199735809
8.956,0.004303783039366707
8.96,0.03226543753612409
8.964,0.0013937895017026893
8.968,0.05374514472707093
8.972,-0.017203036539875947
8.976,-0.006454132590101032
8.98,-0.011997087282865125
8.984,-0.0043751495286045855
8.988,0.02884017292035427
8.992,-0.018971816891579046
8.996,0.018104617576444274
9.0,0.022371129938632096
9.004,0.005977490654218751
9.008000000000001,0.02423136510414977
9.012,0.004986339068924171
9.016,-0.021520618170250017
9.02,0.08069809095692763
9.024000000000001,0.09441360850918527
9.028,0.045664109617749596
9.032,0.05736343998193037
9.036,0.11131440233475709
9.040000000000001,0.08061999416591259
9.044,0.0993125507609618
9.048,0.15634124493193605
9.052,0.12811694291363843
9.056000000000001,0.13865000707584926
9.06,0.10160387228620552
9.064,0.11522114478835879
9.068,0.19016314885361058
9.072000000000001,0.17484796206952827
9.076,0.17691234446290915
9.08,0.20932478546211883
9.084,0.24625086666960164
9.088000000000001,0.22847751182276588
9.092,0.2350959009986665
9.096,0.2660585683121995
9.1,0.3137812620207352
9.104000000000001,0.24358779163695016
9.108,0.2621179758233895
9.112,0.2793347417868485
9.116,0.24832549422775418
9.120000000000001,0.27296648531801865
9.124,0.2835932879048816
9.128,0.30432209841573477
9.132,0.27973421598204007
9.136000000000001,0.33609526688760777
9.14,0.25247648539182466
9.144,0.2667788280052043
9.148,0.22986705672958194
9.152000000000001,0.2889712725901781
9.156,0.22963682238035207
9.16,0.21742276021845436
9.164,0.17514386794862538
9.168000000000001,0.12220390067851856
9.172,0.06474735252994045
9.176,0.08329302886795381
9.18,0.09816052257869451
9.184000000000001,0.1012955449535868
9.188,0.08307068039062819
9.192,0.04636326521928932
9.196,0.06541456017169699
9.200000000000001,0.028706560000286624
9.204,0.01453900000104251
9.208,0.0478498389131604
9.212,0.045272522396741774
9.216000000000001,0.0426736733418089
9.22,-0.012564294232565835
9.224,0.03663206372045792
9.228,-0.040730032244205794
9.232,0.035061724402579125
9.236,0.010676871268146162
9.24,-0.058870210181914656
9.244,0.021120774712083828
9.248,-0.06381330409689752
9.252,0.04846749024727663
9.256,-0.003993911314583537
9.26,0.02242135808968586
9.264,-0.006396932355885977
9.268,-0.0010054941326587512
9.272,0.02224266073223176
9.276,0.0009846482116587611
9.28,-0.06709679239758778
9.284,-0.04131721543273413
9.288,-0.0432492246728163
9.292,-0.05568244385310599
9.296,-0.010583942805783758
9.3,0.024786612793601864
9.304,0.24478202923777906
9.308,0.4917040566726144
9.312,0.7382751423991176
9.316,0.9318815055531662
9.32,1.0142089018874096
9.324,0.8921740886796756
9.328,0.6814302540681462
9.332,0.407010978073871
9.336,0.15298722977710136
9.34,0.005046489650717238
9.344,-0.08590895895436326
9.348,-0.20401555437737698
9.352,-0.1859407317787458
9.356,-0.03555968934576596
9.36,-0.08212590980624783
9.364,-0.07605702218381155
9.368,0.003340391248195065
9.372,0.0040139361420373585
9.376,0.030120328796830374
9.38,0.018776818135977123
9.384,0.017300699825872626
9.388,-0.01830356530970006
9.392,0.0098607083721373
9.396,0.0002137420813572411
9.4,-0.013596219740675632
9.404,0.029157215468521125
9.408,-0.01261125722471876
9.412,-0.004062052025820352
9.416,-0.01259229314853938
9.42,-0.0013011869824929786
9.424,-0.018673673537606274
9.428,0.07554187062841153
9.432,0.03677701984869568
9.436,0.04226133474539034
9.44,0.07872007767996432
9.444,-0.006036620928866292
9.448,-0.023630367717933157
9.452,0.06516037268112164
9.456,0.009350748894054791
9.46,0.026917346404870018
9.464,0.001613950164359234
9.468,0.02940709301806526
9.472,0.07741886118783264
9.476,-0.0381052147903031
9.48,0.005305727342517427
9.484,0.06734076432711983
9.488,0.09364033662108254
9.492,0.08888747254140124
9.496,0.08231072394690256
9.5,0.09932169611392541
9.504,0.1002896759425076
9.508000000000001,0.08471858792464433
9.512,0.08219075390911507
9.516,0.09420462220466334
9.52,0.06757753736649189
9.524000000000001,0.1254372786229705
9.528,0.1740872524547637
9.532,0.11109759275959731
9.536,0.1628649768665974
9.540000000000001,0.18206181896957832
9.544,0.19612249474260213
9.548,0.19521463389327426
9.552,0.18715052240827273
9.556000000000001,0.21433047187512716
9.56,0.26074868612452456
9.564,0.22316109755972416
9.568,0.28914939446582333
9.572000000000001,0.2509556191987881
9.576,0.2646681158172054
9.58,0.2097339100423709
9.584,0.25253561741837244
9.588000000000001,0.2960701544579792
9.592,0.31274424709832627
9.596,0.3484268786873985
9.6,0.24770886347590165
9.604000000000001,0.2842298413420435
9.608,0.2966140335659905
9.612,0.2259810204320417
9.616,0.2627468889080916
9.620000000000001,0.26673032887758824
9.624,0.3212429978710706
9.628,0.1766586164994479
9.632,0.24645282024861423
9.636000000000001,0.28208479527920044
9.64,0.20568959712689022
9.644,0.16406010448016556
9.648,0.16818483873960266
9.652000000000001,0.1774579613557786
9.656,0.11772187047429031
9.66,0.137426883455513
9.664,0.13379251733169878
9.668000000000001,0.08808783086333592
9.672,0.11719303202940733
9.676,0.05748095814153763
9.68,-0.002525820979264924
9.684000000000001,0.07423352065496275
9.688,0.07369736387905745
9.692,0.01225326489779122
9.696,0.055376941606783484
9.700000000000001,0.008182421259181335
9.704,0.023198061573518957
9.708,0.05892968435372899
9.712,-0.006542574154474241
9.716000000000001,0.0338792423822757
9.72,0.06151121150498722
9.724,0.06054749817197576
9.728,0.02899473231630398
9.732,-0.0044478919809561104
9.736,0.0027820344113599488
9.74,0.07779868900518992
9.744,0.007980673077201362
9.748,4.874453508063245e-05
9.752,0.0294778496745085
9.756,0.06012086185247064
9.76,0.03356255692999083
9.764,0.014450450858048648
9.768,0.007167248914006212
9.772,0.027876924841496904
9.776,-0.04773996080596643
9.78,-0.06965539741104429
9.784,-0.04113667927715907
9.788,-0.004557227230563701
9.792,0.06084705368503236
9.796,0.23521958149525984
9.8,0.42847195728285914
9.804,0.7183905031123209
9.808,0.9654220561707445
9.812,1.0385485455508519
9.816,0.9531974146455376
9.82,0.7641058325578027
9.824,0.46502022293240186
9.828,0.20617596007737113
9.832,-0.00034051115429083786
9.836,-0.1249217654504964
9.84,-0.13921704371520105
9.844,-0.22488316713660794
9.848,-0.15497081009439342
9.852,-0.05712452002404095
9.856,-0.05467400265767657
9.86,-0.012373660549760399
9.864,-0.038091406191353344
9.868,-0.010446419542720738
9.872,0.003640041343184384
9.876,0.04127798774917493
9.88,-0.001060260555765559
9.884,0.0851949264927352
9.888,0.07026385342524394
9.892,0.022617494417254785
9.896,0.06072969252138279
9.9,0.06105976486371398
9.904,0.028843494365373742
9.908,0.036202971725064016
9.912,-0.0014065086839955068
9.916,0.05777332339474175
9.92,0.010411833946911364
9.924,0.04226248776357007
9.928,0.024998753912289413
9.932,0.02524148879044722
9.936,0.03824739167628328
9.94,0.05465552429129418
9.944,0.06371765380956479
9.948,0.011237066219115209
9.952,-0.0017629405341090393
9.956,0.07788638492801937
9.96,-0.007861835190468673
9.964,-0.0002963229540324519
9.968,0.025716334694942836
9.972,0.09105165726986657
9.976,0.04554530776530169
9.98,0.039098511472634274
9.984,0.09404211364816249
9.988,0.07888398912706138
9.992,0.06840473902985467
9.996,0.10241443229801164
10.0,0.09294749322566737
10.004,0.1309336429561628
10.008000000000001,0.15566984348724205
10.012,0.0650171961705098
10.016,0.11949799157292501
10.02,0.15609276104198946
10.024000000000001,0.1455298606505205
10.028,0.15720779901110069
10.032,0.18711378612257173
10.036,0.21840440257876959
10.040000000000001,0.2527144925192967
10.044,0.29051728859184367
10.048,0.1975231236922816
10.052,0.2505136219012401
10.056000000000001,0.289526954547322
10.06,0.2397180405993905
10.064,0.24761075367803356
10.068,0.2715266037094662
10.072000000000001,0.2600937102172077
10.076,0.29063924130355034
10.08,0.3162753703076722
10.084,0.3081729992462392
10.088000000000001,0.2764960662371823
10.092,0.25262824356349095
10.096,0.27605852350931437
10.1,0.3081952604758362
10.104000000000001,0.31246792537937507
10.108,0.2486876998865022
10.112,0.2017882530882763
10.116,0.24337117756714433
10.120000000000001,0.3308878400285637
10.124,0.22326906688616288
10.128,0.23126553555218107
10.132,0.19819298775053407
10.136000000000001,0.22011199250500396
10.14,0.20277703477700149
10.144,0.11906723686226123
10.148,0.12358333141847672
10.152000000000001,0.10040631304444045
10.156,0.08192958597833819
10.16,0.08437660052663379
10.164,0.051217287405363174
10.168000000000001,0.11499335223419302
10.172,0.10233449107969905
10.176,0.01967834456624877
10.18,0.0015697131763744779
10.184000000000001,0.05032083101270878
10.188,0.05242318137694866
10.192,0.029850136274301657
10.196,0.04483072512428504
10.200000000000001,0.021156421762644942
10.204,0.0016284808805912335
10.208,0.043197093622826435
10.212,-0.010451007934641841
10.216000000000001,0.02957694664434507
10.22,0.05380609133718625
10.224,0.06761608127711109
10.228,0.00827357416829562
10.232000000000001,0.015033949852045921
10.236,0.08312748548439736
10.24,0.05381752529918417
10.244,-0.006206823770665892
10.248,0.0633766482593334
10.252,0.08794748431226482
10.256,0.04849249295596333
10.26,-0.02572809011733493
10.264,0.0792413605792241
10.268,-0.0043402062753627735
10.272,0.0040042918767336025
10.276,-0.10958688393248425
10.28,0.012733739680224593
10.284,0.08890710923515618
10.288,0.2484057453923747
10.292,0.49049894084894097
10.296,0.6857491422769639
10.3,0.8793751780685773
10.304,1.0590467210310333
10.308,0.9633650773043088
10.312,0.7700868616242929
10.316,0.5126140552270546
10.32,0.2887754608978447
10.324,0.0067411417128248954
10.328,-0.03953113946796964
10.332,-0.13846804976560553
10.336,-0.11156379187225494
10.34,-0.11064239368409486
10.344,-0.040395200845904256
10.348,-0.050431995020404206
10.352,0.00569412466263743
10.356,0.003757353408433861
10.36,0.060403199771423756
10.364,-0.00010463676627875743
10.368,-0.03305699062083256
10.372,0.03960208155464384
10.376,0.046812462265552635
10.38,0.036624327664765824
10.384,0.026222537556566283
10.388,0.08206705895043738
10.392,0.031285332776021454
10.396,-0.025278934025616488
10.4,0.028714042911467397
10.404,0.04175065093130788
10.408,0.03095860869052584
10.412,-0.008387667811873625
10.416,0.03727428361192337
10.42,0.05527595769954246
10.424,0.0038109561243842953
10.428,-0.014302394992684084
10.432,0.07039151759087371
10.436,0.025741360476396004
10.44,0.014599411260262273
10.444,0.01976591470512353
10.448,0.003691909524637136
10.452,0.04065486621810328
10.456,0.04097324152742645
10.46,0.07608852742197225
10.464,0.012490190777162003
10.468,0.09098094198711676
10.472,0.009251357037447845
10.476,0.07009921913361047
10.48,0.070525813129949
10.484,0.12911944492656063
10.488,0.05735296846599351
10.492,0.10217838056902546
10.496,0.0326815129702019
10.5,0.11777873015283831
10.504,0.1006915837786621
10.508000000000001,0.14661932558535928
10.512,0.13529090174231923
10.516,0.15348333095034558
10.52,0.20730048712239516
10.524000000000001,0.1880293347429442
10.528,0.165078986861263
10.532,0.17760547189298787
10.536,0.22191385360111
10.540000000000001,0.2646440530116325
10.544,0.24731216042397497
10.548,0.18368329970443062
10.552,0.24716217787745706
10.556000000000001,0.32778258485710304
10.56,0.2727166288631209
10.564,0.2784047180972266
10.568,0.3228452897692819
10.572000000000001,0.29710323690166357
10.576,0.271382625212683
10.58,0.254416534837942
10.584,0.262572971785948
10.588000000000001,0.1943014855311706
10.592,0.26268464310168005
10.596,0.23381315745301606
10.6,0.2133383644415096
10.604000000000001,0.23306213936928172
10.608,0.2690587507862208
10.612,0.20842730545470556
10.616,0.14413512577589688
10.620000000000001,0.24625196296532204
10.624,0.15231945331507443
10.628,0.1632423483402518
10.632,0.23085698766052712
10.636000000000001,0.1877823691892993
10.64,0.12600576520151602
10.644,0.15039887843165473
10.648,0.13752799454531875
10.652000000000001,0.18367895235036213
10.656,0.12819743792455635
10.66,0.0952157069596031
10.664,0.06341225514375505
10.668000000000001,0.10885512800626802
10.672,0.07572256774816803
10.676,0.04155318930332197
10.68,-0.0002575396230826005
10.684000000000001,0.07786815950373147
10.688,0.06434916095924631
10.692,0.05575903809344593
10.696,0.048924375325463405
10.700000000000001,0.01844694938330635
10.704,0.04449156645213532
10.708,0.005496560636294133
10.712,0.08991208691505606
10.716000000000001,0.028416927828456926
10.72,0.06539670358531686
10.724,0.01415882382019151
10.728,-0.016295059805027455
10.732000000000001,0.05925758775180143
10.736,-0.001869533878491439
10.74,0.01160548770210153
10.744,0.05613055380510976
10.748000000000001,0.06834406600703284
10.752,0.019265375259281577
10.756,0.08522549511460742
10.76,0.06469968668762455
10.764,0.010727179524992582
10.768,-0.014592961253753114
10.772,0.027533735175535663
10.776,0.04188948994642262
10.78,-0.00410536327218184
10.784,-0.02774409830419259
10.788,-0.008071588077071305
10.792,-0.0653750739682503
10.796,-0.01463890579010544
10.8,0.016121652833227806
10.804,0.15106009047887525
10.808,0.36220510640026454
10.812,0.6533014059507185
10.816,0.8591467000075367
10.82,0.9973532636006639
10.824,0.9905142258295419
10.828,0.7820591381896106
10.832,0.5206881919152999
10.836,0.2803940048114189
10.84,0.055174848582409355
10.844,-0.09955164449368561
10.848,-0.14603491235587515
10.852,-0.15208873420293942
10.856,-0.10545531222483034
10.86,-0.12645367932226903
10.864,-0.06214775800873847
10.868,-0.015098558158856478
10.872,0.057587431437411726
10.876,0.05332766006357791
10.88,0.04015538404819003
10.884,0.0020879599206307005
10.888,0.054302969458035415
10.892,-0.015377996296504926
10.896,0.007029222759343902
10.9,0.025535664900923176
10.904,0.010322369964242385
10.908,-0.022244532441409913
10.912,-0.0378792046610954
10.916,0.048732250357563525
10.92,-0.0006366120807339108
10.924,0.019288287439225647
10.928,-0.025117830736460643
10.932,0.015820662313280144
10.936,0.014130867240749247
10.94,-0.002332623369403118
10.944,0.009386428848658097
10.948,0.015573930349178085
10.952,0.05558676461983567
10.956,0.04349851959516938
10.96,0.015792033443340358
10.964,0.041542110495565415
10.968,0.04426591727715103
10.972,0.04803587862244021
10.976,0.046780746057692224
10.98,0.07176935691952778
10.984,0.04002892245408643
10.988,0.0010484015527653726
10.992,-0.003543673998569717
10.996,0.021805512954718716
11.0,0.032053202413480246
11.004,0.09279470341221364
11.008000000000001,0.0730540741368558
11.012,0.12011283274835996
11.016,0.11844833446199904
11.02,0.12700680216885324
11.024000000000001,0.11307277508316373
11.028,0.1279671930399336
11.032,0.14050320130148133
11.036,0.18791482197008597
11.040000000000001,0.15049199716749687
11.044,0.17564735631219647
11.048,0.2145102709391009
11.052,0.21565672360690655
11.056000000000001,0.25484243674896606
11.06,0.22996111587353743
11.064,0.17446874775529103
11.068,0.2898591906772455
11.072000000000001,0.28763852266372497
11.076,0.24872303342287896
11.08,0.2928818903458046
11.084,0.2672973645290684
11.088000000000001,0.22131172590688059
11.092,0.24744236116777765
11.096,0.22213713365543344
11.1,0.23081064649138835
11.104000000000001,0.18224450194163985
11.108,0.2048273132166963
11.112,0.20698537528554195
11.116,0.18953572930251417
11.120000000000001,0.25968858937787903
11.124,0.21075547859577654
11.128,0.14659451062329748
11.132,0.16416295193884797
11.136000000000001,0.16976325717739243
11.14,0.17939330404447132
11.144,0.19113701098904573
11.148,0.11400630032525685
11.152000000000001,0.19441604757700684
11.156,0.12879841639088205
11.16,0.12208646884204657
11.164,0.17639902377288266
11.168000000000001,0.14519689363659416
11.172,0.13472493439529723
11.176,0.08123460201825311
11.18,0.08210958468892027
11.184000000000001,0.12252909008249195
11.188,0.09656081112013637
11.192,0.057291645514527305
11.196,0.031182807328303544
11.200000000000001,0.06951272287716782
11.204,0.01167222838722188
11.208,0.02905829231904045
11.212,-0.030994946908459935
11.216000000000001,0.022744746339238377
11.22,0.06122238067860289
11.224,0.028009814936395594
11.228,0.015189418173871724
11.232000000000001,0.05431064591586905
11.236,0.011827537611443239
11.24,-0.023690263780339126
11.244,-0.00935302500437611
11.248000000000001,-4.4483159642647735e-05
11.252,-0.055527112622490424
11.256,0.01095993381763166
11.26,-0.04782977047876413
11.264,-0.02886851084544491
11.268,0.023658431096388904
11.272,-0.027245576504848906
11.276,-0.0017292635237470967
11.28,0.0189035638562031
11.284,-0.03306668959700897
11.288,0.056453461178314526
11.292,0.03425063805053984
11.296,-0.04021211187186974
11.3,-0.008224756202618977
11.304,-0.02609340781625725
11.308,-0.003713964583151902
11.312,-0.11189080861801348
11.316,-0.053215384327627055
11.32,0.12256289417045536
11.324,0.3629689154528589
11.328,0.6089618289711489
11.332,0.8306306712764182
11.336,1.0101809781646407
11.34,1.013670404304905
11.344,0.7810097188518847
11.348,0.5441712624814276
11.352,0.28684096174074647
11.356,0.1055418246256174
11.36,-0.06115394901962609
11.364,-0.17277961699246525
11.368,-0.15983800438676185
11.372,-0.1402749708818751
11.376,-0.14320724170927557
11.38,-0.12327065773801169
11.384,0.015937001941662914
11.388,-0.003187779222556774
11.392,0.006139699428724726
11.396,0.038843915226106966
11.4,0.03302631166731811
11.404,0.04738247892483204
11.408,-0.009026024830892966
11.412,0.024701979402550155
11.416,-0.05564867387398088
11.42,-0.0015212679333822072
11.424,0.0016391439309373043
11.428,-0.06736605075231694
11.432,-0.014760722351553197
11.436,-0.0003974996500043888
11.44,-0.009615657778093967
11.444,-0.013174168446559234
11.448,0.07805728029773519
11.452,0.005438041750481252
11.456,-0.008581611637919456
11.46,-0.046771051381328435
11.464,-0.0474090657849404
11.468,-0.060136260139996386
11.472,0.05374457600530355
11.476,0.027784602528610546
11.48,-0.046613433987931385
11.484,0.05344334617206359
11.488,-0.011212500349839939
11.492,0.006822499013065945
11.496,-0.03776804732769436
11.5,0.014525150951964867
11.504,0.03289310431210131
11.508000000000001,0.053728725521258944
11.512,0.05595849699772089
11.516,0.03527102680359041
11.52,0.08091115808876324
11.524000000000001,0.07318808817043447
11.528,0.04400740143041136
11.532,0.08496798754740771
11.536,0.09353334054713848
11.540000000000001,0.15950172120133743
11.544,0.1440914763642484
11.548,0.18250465277189648
11.552,0.13822282373665437
11.556000000000001,0.17628999323126937
11.56,0.1503278306866679
11.564,0.14701492492116228
11.568,0.17107949632620198
11.572000000000001,0.1588917772105158
11.576,0.21697477503008586
11.58,0.20939607316786737
11.584,0.20524599329884202
11.588000000000001,0.26175241129201715
11.592,0.21945197893019122
11.596,0.223557123502882
11.6,0.2505483500902822
11.604000000000001,0.2037285594179614
11.608,0.23028282205658426
11.612,0.20363579880462476
11.616,0.22596883352222155
11.620000000000001,0.19511323069959766
11.624,0.15527740493370054
11.628,0.19098405589102746
11.632,0.1281299359904115
11.636000000000001,0.15146066909553413
11.64,0.16813038239026937
11.644,0.13898607856302186
11.648,0.15736662134973647
11.652000000000001,0.10885157907035153
11.656,0.06785734075722633
11.66,0.10020437302516509
11.664,0.06635794252572944
11.668000000000001,0.061530075455867146
11.672,0.0270228855053063
11.676,0.06198297292137005
11.68,0.05870791057216518
11.684000000000001,-0.059940672584446436
11.688,0.006831149501035069
11.692,-0.041030205089381926
11.696,-0.0043861916352697615
11.700000000000001,0.013089578438064912
11.704,-0.01868665083568443
11.708,0.021064864574525402
11.712,-0.02293003634272099
11.716000000000001,0.000666531737793373
11.72,-0.0006055160311581194
11.724,0.018735159804394195
11.728,-0.007954360254502612
11.732000000000001,-0.01223962872323759
11.736,-0.0445837703896757
11.74,-0.015896519746307833
11.744,0.0033358390364647793
11.748000000000001,-0.04050111344644619
11.752,-0.007648639347706325
11.756,-0.0643216074255915
11.76,-0.04689032196838257
11.764000000000001,-0.02784368584218214
11.768,-0.038997792370431404
11.772,0.020144927809302608
11.776,-0.06140444825613913
11.78,-0.026333157692439536
11.784,-0.044186859104951286
11.788,0.019565876304371045
11.792,0.0012915611877290546
11.796,-0.05180495087583522
11.8,0.023488663708418966
11.804,-0.01500950822904157
11.808,0.011707792316366282
11.812,-0.03554061872138397
11.816,0.01907520966045341
11.82,0.006540121881974347
11.824,-0.012051087653538944
11.828,-0.04202786072554083
11.832,0.053169617386592864
11.836,-0.04393031534049952
11.84,-0.003313112915458386
11.844,-0.029173827645262367
11.848,-0.020969723133208103
11.852,-0.012334951763823642
11.856,0.003573923034451759
11.86,-0.05114984810004734
11.864,-0.04132561075605825
11.868,0.021921161292317172
11.872,0.02902486763893964
11.876,-0.0208843388572204
11.88,-0.034223667183597976
11.884,-0.05418239834151339
11.888,0.03202281194509753
11.892,-0.05619026906377808
11.896,-0.038541361978671876
11.9,-0.032278360472287035
11.904,-0.006306988677688161
11.908,-0.058479710198559416
11.912,-0.05346315333787671
11.916,0.020144589459705587
11.92,0.03918492253465326
11.924,-0.0012405349171612096
11.928,-0.06735560635494546
11.932,-0.024181666603856386
11.936,-0.06657713991991426
11.94,0.0005898533593336388
11.944,-0.03811856551379392
11.948,-0.029996436344703725
11.952,-0.02037983846344845
11.956,-0.061249549866337974
11.96,-0.03498710041077419
11.964,-0.07178225412417737
11.968,-0.014410511502589075
11.972,0.004485149879778749
11.976,-0.05925220078939626
11.98,-0.022611492452426343
11.984,-0.04239116670766753
11.988,0.013188683027113644
11.992,-0.018359317198289947
11.996,-0.0001433329173663317
